# Pulseq sequence file
# Created by MATLAB mr toolbox

# Created for Pulseq-CEST
# https://pulseq-cest.github.io/
# Created by: Kai Herz
# Created at: 23-Feb-2023 14:35:05

[VERSION]
major 1
minor 3
revision 1

[DEFINITIONS]
B0 6.95 
B1cwpe 0.499801956 
DCsat 0.952380952 
M0_offset -1560 
Trec 5 
Trec_M0 5 
Tsat 3.985 
n_pulses 38 
num_meas 122 
offsets_ppm -1560 -6 -5.9 -5.8 -5.7 -5.6 -5.5 -5.4 -5.3 -5.2 -5.1 -5 -4.9 -4.8 -4.7 -4.6 -4.5 -4.4 -4.3 -4.2 -4.1 -4 -3.9 -3.8 -3.7 -3.6 -3.5 -3.4 -3.3 -3.2 -3.1 -3 -2.9 -2.8 -2.7 -2.6 -2.5 -2.4 -2.3 -2.2 -2.1 -2 -1.9 -1.8 -1.7 -1.6 -1.5 -1.4 -1.3 -1.2 -1.1 -1 -0.9 -0.8 -0.7 -0.6 -0.5 -0.4 -0.3 -0.2 -0.1 0 0.1 0.2 0.3 0.4 0.5 0.6 0.7 0.8 0.9 1 1.1 1.2 1.3 1.4 1.5 1.6 1.7 1.8 1.9 2 2.1 2.2 2.3 2.4 2.5 2.6 2.7 2.8 2.9 3 3.1 3.2 3.3 3.4 3.5 3.6 3.7 3.8 3.9 4 4.1 4.2 4.3 4.4 4.5 4.6 4.7 4.8 4.9 5 5.1 5.2 5.3 5.4 5.5 5.6 5.7 5.8 5.9 6 
seq_id_string APTw_7T_001_0pt2uT_Gaussian 
td 0.005 
tp 0.1 

# Format of blocks:
#  #  D RF  GX  GY  GZ ADC EXT
[BLOCKS]
   1  1  0   0   0   0  0  0
   2  0  1   0   0   0  0  0
   3  2  0   0   0   0  0  0
   4  0  2   0   0   0  0  0
   5  2  0   0   0   0  0  0
   6  0  3   0   0   0  0  0
   7  2  0   0   0   0  0  0
   8  0  4   0   0   0  0  0
   9  2  0   0   0   0  0  0
  10  0  5   0   0   0  0  0
  11  2  0   0   0   0  0  0
  12  0  6   0   0   0  0  0
  13  2  0   0   0   0  0  0
  14  0  7   0   0   0  0  0
  15  2  0   0   0   0  0  0
  16  0  8   0   0   0  0  0
  17  2  0   0   0   0  0  0
  18  0  9   0   0   0  0  0
  19  2  0   0   0   0  0  0
  20  0 10   0   0   0  0  0
  21  2  0   0   0   0  0  0
  22  0 11   0   0   0  0  0
  23  2  0   0   0   0  0  0
  24  0 12   0   0   0  0  0
  25  2  0   0   0   0  0  0
  26  0 13   0   0   0  0  0
  27  2  0   0   0   0  0  0
  28  0 14   0   0   0  0  0
  29  2  0   0   0   0  0  0
  30  0 15   0   0   0  0  0
  31  2  0   0   0   0  0  0
  32  0 16   0   0   0  0  0
  33  2  0   0   0   0  0  0
  34  0 17   0   0   0  0  0
  35  2  0   0   0   0  0  0
  36  0 18   0   0   0  0  0
  37  2  0   0   0   0  0  0
  38  0 19   0   0   0  0  0
  39  2  0   0   0   0  0  0
  40  0 20   0   0   0  0  0
  41  2  0   0   0   0  0  0
  42  0 21   0   0   0  0  0
  43  2  0   0   0   0  0  0
  44  0 22   0   0   0  0  0
  45  2  0   0   0   0  0  0
  46  0 23   0   0   0  0  0
  47  2  0   0   0   0  0  0
  48  0 24   0   0   0  0  0
  49  2  0   0   0   0  0  0
  50  0 25   0   0   0  0  0
  51  2  0   0   0   0  0  0
  52  0 26   0   0   0  0  0
  53  2  0   0   0   0  0  0
  54  0 27   0   0   0  0  0
  55  2  0   0   0   0  0  0
  56  0 28   0   0   0  0  0
  57  2  0   0   0   0  0  0
  58  0 29   0   0   0  0  0
  59  2  0   0   0   0  0  0
  60  0 30   0   0   0  0  0
  61  2  0   0   0   0  0  0
  62  0 31   0   0   0  0  0
  63  2  0   0   0   0  0  0
  64  0 32   0   0   0  0  0
  65  2  0   0   0   0  0  0
  66  0 33   0   0   0  0  0
  67  2  0   0   0   0  0  0
  68  0 34   0   0   0  0  0
  69  2  0   0   0   0  0  0
  70  0 35   0   0   0  0  0
  71  2  0   0   0   0  0  0
  72  0 36   0   0   0  0  0
  73  2  0   0   0   0  0  0
  74  0 37   0   0   0  0  0
  75  2  0   0   0   0  0  0
  76  0 38   0   0   0  0  0
  77  0  0   0   0   0  1  0
  78  1  0   0   0   0  0  0
  79  0 39   0   0   0  0  0
  80  2  0   0   0   0  0  0
  81  0 40   0   0   0  0  0
  82  2  0   0   0   0  0  0
  83  0 41   0   0   0  0  0
  84  2  0   0   0   0  0  0
  85  0 42   0   0   0  0  0
  86  2  0   0   0   0  0  0
  87  0 43   0   0   0  0  0
  88  2  0   0   0   0  0  0
  89  0 44   0   0   0  0  0
  90  2  0   0   0   0  0  0
  91  0 45   0   0   0  0  0
  92  2  0   0   0   0  0  0
  93  0 46   0   0   0  0  0
  94  2  0   0   0   0  0  0
  95  0 47   0   0   0  0  0
  96  2  0   0   0   0  0  0
  97  0 48   0   0   0  0  0
  98  2  0   0   0   0  0  0
  99  0 49   0   0   0  0  0
 100  2  0   0   0   0  0  0
 101  0 50   0   0   0  0  0
 102  2  0   0   0   0  0  0
 103  0 51   0   0   0  0  0
 104  2  0   0   0   0  0  0
 105  0 52   0   0   0  0  0
 106  2  0   0   0   0  0  0
 107  0 53   0   0   0  0  0
 108  2  0   0   0   0  0  0
 109  0 54   0   0   0  0  0
 110  2  0   0   0   0  0  0
 111  0 55   0   0   0  0  0
 112  2  0   0   0   0  0  0
 113  0 56   0   0   0  0  0
 114  2  0   0   0   0  0  0
 115  0 57   0   0   0  0  0
 116  2  0   0   0   0  0  0
 117  0 58   0   0   0  0  0
 118  2  0   0   0   0  0  0
 119  0 59   0   0   0  0  0
 120  2  0   0   0   0  0  0
 121  0 60   0   0   0  0  0
 122  2  0   0   0   0  0  0
 123  0 61   0   0   0  0  0
 124  2  0   0   0   0  0  0
 125  0 62   0   0   0  0  0
 126  2  0   0   0   0  0  0
 127  0 63   0   0   0  0  0
 128  2  0   0   0   0  0  0
 129  0 64   0   0   0  0  0
 130  2  0   0   0   0  0  0
 131  0 65   0   0   0  0  0
 132  2  0   0   0   0  0  0
 133  0 66   0   0   0  0  0
 134  2  0   0   0   0  0  0
 135  0 67   0   0   0  0  0
 136  2  0   0   0   0  0  0
 137  0 68   0   0   0  0  0
 138  2  0   0   0   0  0  0
 139  0 69   0   0   0  0  0
 140  2  0   0   0   0  0  0
 141  0 70   0   0   0  0  0
 142  2  0   0   0   0  0  0
 143  0 71   0   0   0  0  0
 144  2  0   0   0   0  0  0
 145  0 72   0   0   0  0  0
 146  2  0   0   0   0  0  0
 147  0 73   0   0   0  0  0
 148  2  0   0   0   0  0  0
 149  0 74   0   0   0  0  0
 150  2  0   0   0   0  0  0
 151  0 75   0   0   0  0  0
 152  2  0   0   0   0  0  0
 153  0 76   0   0   0  0  0
 154  0  0   0   0   0  1  0
 155  1  0   0   0   0  0  0
 156  0 77   0   0   0  0  0
 157  2  0   0   0   0  0  0
 158  0 78   0   0   0  0  0
 159  2  0   0   0   0  0  0
 160  0 79   0   0   0  0  0
 161  2  0   0   0   0  0  0
 162  0 80   0   0   0  0  0
 163  2  0   0   0   0  0  0
 164  0 81   0   0   0  0  0
 165  2  0   0   0   0  0  0
 166  0 82   0   0   0  0  0
 167  2  0   0   0   0  0  0
 168  0 83   0   0   0  0  0
 169  2  0   0   0   0  0  0
 170  0 84   0   0   0  0  0
 171  2  0   0   0   0  0  0
 172  0 85   0   0   0  0  0
 173  2  0   0   0   0  0  0
 174  0 86   0   0   0  0  0
 175  2  0   0   0   0  0  0
 176  0 87   0   0   0  0  0
 177  2  0   0   0   0  0  0
 178  0 88   0   0   0  0  0
 179  2  0   0   0   0  0  0
 180  0 89   0   0   0  0  0
 181  2  0   0   0   0  0  0
 182  0 90   0   0   0  0  0
 183  2  0   0   0   0  0  0
 184  0 91   0   0   0  0  0
 185  2  0   0   0   0  0  0
 186  0 92   0   0   0  0  0
 187  2  0   0   0   0  0  0
 188  0 93   0   0   0  0  0
 189  2  0   0   0   0  0  0
 190  0 94   0   0   0  0  0
 191  2  0   0   0   0  0  0
 192  0 95   0   0   0  0  0
 193  2  0   0   0   0  0  0
 194  0 96   0   0   0  0  0
 195  2  0   0   0   0  0  0
 196  0 97   0   0   0  0  0
 197  2  0   0   0   0  0  0
 198  0 98   0   0   0  0  0
 199  2  0   0   0   0  0  0
 200  0 99   0   0   0  0  0
 201  2  0   0   0   0  0  0
 202  0 100   0   0   0  0  0
 203  2  0   0   0   0  0  0
 204  0 101   0   0   0  0  0
 205  2  0   0   0   0  0  0
 206  0 102   0   0   0  0  0
 207  2  0   0   0   0  0  0
 208  0 103   0   0   0  0  0
 209  2  0   0   0   0  0  0
 210  0 104   0   0   0  0  0
 211  2  0   0   0   0  0  0
 212  0 105   0   0   0  0  0
 213  2  0   0   0   0  0  0
 214  0 106   0   0   0  0  0
 215  2  0   0   0   0  0  0
 216  0 107   0   0   0  0  0
 217  2  0   0   0   0  0  0
 218  0 108   0   0   0  0  0
 219  2  0   0   0   0  0  0
 220  0 109   0   0   0  0  0
 221  2  0   0   0   0  0  0
 222  0 110   0   0   0  0  0
 223  2  0   0   0   0  0  0
 224  0 111   0   0   0  0  0
 225  2  0   0   0   0  0  0
 226  0 112   0   0   0  0  0
 227  2  0   0   0   0  0  0
 228  0 113   0   0   0  0  0
 229  2  0   0   0   0  0  0
 230  0 114   0   0   0  0  0
 231  0  0   0   0   0  1  0
 232  1  0   0   0   0  0  0
 233  0 115   0   0   0  0  0
 234  2  0   0   0   0  0  0
 235  0 116   0   0   0  0  0
 236  2  0   0   0   0  0  0
 237  0 117   0   0   0  0  0
 238  2  0   0   0   0  0  0
 239  0 118   0   0   0  0  0
 240  2  0   0   0   0  0  0
 241  0 119   0   0   0  0  0
 242  2  0   0   0   0  0  0
 243  0 120   0   0   0  0  0
 244  2  0   0   0   0  0  0
 245  0 121   0   0   0  0  0
 246  2  0   0   0   0  0  0
 247  0 122   0   0   0  0  0
 248  2  0   0   0   0  0  0
 249  0 123   0   0   0  0  0
 250  2  0   0   0   0  0  0
 251  0 124   0   0   0  0  0
 252  2  0   0   0   0  0  0
 253  0 125   0   0   0  0  0
 254  2  0   0   0   0  0  0
 255  0 126   0   0   0  0  0
 256  2  0   0   0   0  0  0
 257  0 127   0   0   0  0  0
 258  2  0   0   0   0  0  0
 259  0 128   0   0   0  0  0
 260  2  0   0   0   0  0  0
 261  0 129   0   0   0  0  0
 262  2  0   0   0   0  0  0
 263  0 130   0   0   0  0  0
 264  2  0   0   0   0  0  0
 265  0 131   0   0   0  0  0
 266  2  0   0   0   0  0  0
 267  0 132   0   0   0  0  0
 268  2  0   0   0   0  0  0
 269  0 133   0   0   0  0  0
 270  2  0   0   0   0  0  0
 271  0 134   0   0   0  0  0
 272  2  0   0   0   0  0  0
 273  0 135   0   0   0  0  0
 274  2  0   0   0   0  0  0
 275  0 136   0   0   0  0  0
 276  2  0   0   0   0  0  0
 277  0 137   0   0   0  0  0
 278  2  0   0   0   0  0  0
 279  0 138   0   0   0  0  0
 280  2  0   0   0   0  0  0
 281  0 139   0   0   0  0  0
 282  2  0   0   0   0  0  0
 283  0 140   0   0   0  0  0
 284  2  0   0   0   0  0  0
 285  0 141   0   0   0  0  0
 286  2  0   0   0   0  0  0
 287  0 142   0   0   0  0  0
 288  2  0   0   0   0  0  0
 289  0 143   0   0   0  0  0
 290  2  0   0   0   0  0  0
 291  0 144   0   0   0  0  0
 292  2  0   0   0   0  0  0
 293  0 145   0   0   0  0  0
 294  2  0   0   0   0  0  0
 295  0 146   0   0   0  0  0
 296  2  0   0   0   0  0  0
 297  0 147   0   0   0  0  0
 298  2  0   0   0   0  0  0
 299  0 148   0   0   0  0  0
 300  2  0   0   0   0  0  0
 301  0 149   0   0   0  0  0
 302  2  0   0   0   0  0  0
 303  0 150   0   0   0  0  0
 304  2  0   0   0   0  0  0
 305  0 151   0   0   0  0  0
 306  2  0   0   0   0  0  0
 307  0 152   0   0   0  0  0
 308  0  0   0   0   0  1  0
[RF]
1      35.6971 1 2 100 -461613 0
2      35.6971 1 2 100 -461613 0.808855
3      35.6971 1 2 100 -461613 1.61771
4      35.6971 1 2 100 -461613 2.42657
5      35.6971 1 2 100 -461613 3.23542
6      35.6971 1 2 100 -461613 4.04428
7      35.6971 1 2 100 -461613 4.85313
8      35.6971 1 2 100 -461613 5.66199
9      35.6971 1 2 100 -461613 0.187658
10      35.6971 1 2 100 -461613 0.996513
11      35.6971 1 2 100 -461613 1.80537
12      35.6971 1 2 100 -461613 2.61422
13      35.6971 1 2 100 -461613 3.42308
14      35.6971 1 2 100 -461613 4.23193
15      35.6971 1 2 100 -461613 5.04079
16      35.6971 1 2 100 -461613 5.84965
17      35.6971 1 2 100 -461613 0.375315
18      35.6971 1 2 100 -461613 1.18417
19      35.6971 1 2 100 -461613 1.99303
20      35.6971 1 2 100 -461613 2.80188
21      35.6971 1 2 100 -461613 3.61074
22      35.6971 1 2 100 -461613 4.41959
23      35.6971 1 2 100 -461613 5.22845
24      35.6971 1 2 100 -461613 6.0373
25      35.6971 1 2 100 -461613 0.562973
26      35.6971 1 2 100 -461613 1.37183
27      35.6971 1 2 100 -461613 2.18068
28      35.6971 1 2 100 -461613 2.98954
29      35.6971 1 2 100 -461613 3.79839
30      35.6971 1 2 100 -461613 4.60725
31      35.6971 1 2 100 -461613 5.4161
32      35.6971 1 2 100 -461613 6.22496
33      35.6971 1 2 100 -461613 0.75063
34      35.6971 1 2 100 -461613 1.55949
35      35.6971 1 2 100 -461613 2.36834
36      35.6971 1 2 100 -461613 3.1772
37      35.6971 1 2 100 -461613 3.98605
38      35.6971 1 2 100 -461613 4.79491
39      35.6971 1 2 100 -1775.44 0
40      35.6971 1 2 100 -1775.44 2.87888
41      35.6971 1 2 100 -1775.44 5.75775
42      35.6971 1 2 100 -1775.44 2.35344
43      35.6971 1 2 100 -1775.44 5.23232
44      35.6971 1 2 100 -1775.44 1.82801
45      35.6971 1 2 100 -1775.44 4.70689
46      35.6971 1 2 100 -1775.44 1.30258
47      35.6971 1 2 100 -1775.44 4.18146
48      35.6971 1 2 100 -1775.44 0.777148
49      35.6971 1 2 100 -1775.44 3.65602
50      35.6971 1 2 100 -1775.44 0.251716
51      35.6971 1 2 100 -1775.44 3.13059
52      35.6971 1 2 100 -1775.44 6.00947
53      35.6971 1 2 100 -1775.44 2.60516
54      35.6971 1 2 100 -1775.44 5.48404
55      35.6971 1 2 100 -1775.44 2.07973
56      35.6971 1 2 100 -1775.44 4.9586
57      35.6971 1 2 100 -1775.44 1.5543
58      35.6971 1 2 100 -1775.44 4.43317
59      35.6971 1 2 100 -1775.44 1.02886
60      35.6971 1 2 100 -1775.44 3.90774
61      35.6971 1 2 100 -1775.44 0.503431
62      35.6971 1 2 100 -1775.44 3.38231
63      35.6971 1 2 100 -1775.44 6.26118
64      35.6971 1 2 100 -1775.44 2.85688
65      35.6971 1 2 100 -1775.44 5.73575
66      35.6971 1 2 100 -1775.44 2.33144
67      35.6971 1 2 100 -1775.44 5.21032
68      35.6971 1 2 100 -1775.44 1.80601
69      35.6971 1 2 100 -1775.44 4.68489
70      35.6971 1 2 100 -1775.44 1.28058
71      35.6971 1 2 100 -1775.44 4.15946
72      35.6971 1 2 100 -1775.44 0.755147
73      35.6971 1 2 100 -1775.44 3.63402
74      35.6971 1 2 100 -1775.44 0.229715
75      35.6971 1 2 100 -1775.44 3.10859
76      35.6971 1 2 100 -1775.44 5.98747
77      35.6971 1 2 100 -1745.85 0
78      35.6971 1 2 100 -1745.85 2.62146
79      35.6971 1 2 100 -1745.85 5.24291
80      35.6971 1 2 100 -1745.85 1.58118
81      35.6971 1 2 100 -1745.85 4.20264
82      35.6971 1 2 100 -1745.85 0.540908
83      35.6971 1 2 100 -1745.85 3.16236
84      35.6971 1 2 100 -1745.85 5.78382
85      35.6971 1 2 100 -1745.85 2.12209
86      35.6971 1 2 100 -1745.85 4.74355
87      35.6971 1 2 100 -1745.85 1.08182
88      35.6971 1 2 100 -1745.85 3.70327
89      35.6971 1 2 100 -1745.85 0.0415428
90      35.6971 1 2 100 -1745.85 2.663
91      35.6971 1 2 100 -1745.85 5.28445
92      35.6971 1 2 100 -1745.85 1.62272
93      35.6971 1 2 100 -1745.85 4.24418
94      35.6971 1 2 100 -1745.85 0.582451
95      35.6971 1 2 100 -1745.85 3.20391
96      35.6971 1 2 100 -1745.85 5.82536
97      35.6971 1 2 100 -1745.85 2.16363
98      35.6971 1 2 100 -1745.85 4.78509
99      35.6971 1 2 100 -1745.85 1.12336
100      35.6971 1 2 100 -1745.85 3.74482
101      35.6971 1 2 100 -1745.85 0.0830856
102      35.6971 1 2 100 -1745.85 2.70454
103      35.6971 1 2 100 -1745.85 5.326
104      35.6971 1 2 100 -1745.85 1.66427
105      35.6971 1 2 100 -1745.85 4.28572
106      35.6971 1 2 100 -1745.85 0.623994
107      35.6971 1 2 100 -1745.85 3.24545
108      35.6971 1 2 100 -1745.85 5.86691
109      35.6971 1 2 100 -1745.85 2.20518
110      35.6971 1 2 100 -1745.85 4.82663
111      35.6971 1 2 100 -1745.85 1.1649
112      35.6971 1 2 100 -1745.85 3.78636
113      35.6971 1 2 100 -1745.85 0.124628
114      35.6971 1 2 100 -1745.85 2.74608
115      35.6971 1 2 100 -1716.25 0
116      35.6971 1 2 100 -1716.25 2.36403
117      35.6971 1 2 100 -1716.25 4.72807
118      35.6971 1 2 100 -1716.25 0.80892
119      35.6971 1 2 100 -1716.25 3.17295
120      35.6971 1 2 100 -1716.25 5.53699
121      35.6971 1 2 100 -1716.25 1.61784
122      35.6971 1 2 100 -1716.25 3.98187
123      35.6971 1 2 100 -1716.25 0.062724
124      35.6971 1 2 100 -1716.25 2.42676
125      35.6971 1 2 100 -1716.25 4.79079
126      35.6971 1 2 100 -1716.25 0.871644
127      35.6971 1 2 100 -1716.25 3.23568
128      35.6971 1 2 100 -1716.25 5.59971
129      35.6971 1 2 100 -1716.25 1.68056
130      35.6971 1 2 100 -1716.25 4.0446
131      35.6971 1 2 100 -1716.25 0.125448
132      35.6971 1 2 100 -1716.25 2.48948
133      35.6971 1 2 100 -1716.25 4.85352
134      35.6971 1 2 100 -1716.25 0.934368
135      35.6971 1 2 100 -1716.25 3.2984
136      35.6971 1 2 100 -1716.25 5.66244
137      35.6971 1 2 100 -1716.25 1.74329
138      35.6971 1 2 100 -1716.25 4.10732
139      35.6971 1 2 100 -1716.25 0.188172
140      35.6971 1 2 100 -1716.25 2.55221
141      35.6971 1 2 100 -1716.25 4.91624
142      35.6971 1 2 100 -1716.25 0.997092
143      35.6971 1 2 100 -1716.25 3.36113
144      35.6971 1 2 100 -1716.25 5.72516
145      35.6971 1 2 100 -1716.25 1.80601
146      35.6971 1 2 100 -1716.25 4.17005
147      35.6971 1 2 100 -1716.25 0.250896
148      35.6971 1 2 100 -1716.25 2.61493
149      35.6971 1 2 100 -1716.25 4.97897
150      35.6971 1 2 100 -1716.25 1.05982
151      35.6971 1 2 100 -1716.25 3.42385
152      35.6971 1 2 100 -1716.25 5.78789
153      35.6971 1 2 100 -1686.66 0
154      35.6971 1 2 100 -1686.66 2.10661
155      35.6971 1 2 100 -1686.66 4.21323
156      35.6971 1 2 100 -1686.66 0.0366573
157      35.6971 1 2 100 -1686.66 2.14327
158      35.6971 1 2 100 -1686.66 4.24989
159      35.6971 1 2 100 -1686.66 0.0733146
160      35.6971 1 2 100 -1686.66 2.17993
161      35.6971 1 2 100 -1686.66 4.28654
162      35.6971 1 2 100 -1686.66 0.109972
163      35.6971 1 2 100 -1686.66 2.21659
164      35.6971 1 2 100 -1686.66 4.3232
165      35.6971 1 2 100 -1686.66 0.146629
166      35.6971 1 2 100 -1686.66 2.25324
167      35.6971 1 2 100 -1686.66 4.35986
168      35.6971 1 2 100 -1686.66 0.183287
169      35.6971 1 2 100 -1686.66 2.2899
170      35.6971 1 2 100 -1686.66 4.39651
171      35.6971 1 2 100 -1686.66 0.219944
172      35.6971 1 2 100 -1686.66 2.32656
173      35.6971 1 2 100 -1686.66 4.43317
174      35.6971 1 2 100 -1686.66 0.256601
175      35.6971 1 2 100 -1686.66 2.36322
176      35.6971 1 2 100 -1686.66 4.46983
177      35.6971 1 2 100 -1686.66 0.293258
178      35.6971 1 2 100 -1686.66 2.39987
179      35.6971 1 2 100 -1686.66 4.50649
180      35.6971 1 2 100 -1686.66 0.329916
181      35.6971 1 2 100 -1686.66 2.43653
182      35.6971 1 2 100 -1686.66 4.54314
183      35.6971 1 2 100 -1686.66 0.366573
184      35.6971 1 2 100 -1686.66 2.47319
185      35.6971 1 2 100 -1686.66 4.5798
186      35.6971 1 2 100 -1686.66 0.40323
187      35.6971 1 2 100 -1686.66 2.50984
188      35.6971 1 2 100 -1686.66 4.61646
189      35.6971 1 2 100 -1686.66 0.439888
190      35.6971 1 2 100 -1686.66 2.5465
191      35.6971 1 2 100 -1657.07 0
192      35.6971 1 2 100 -1657.07 1.84919
193      35.6971 1 2 100 -1657.07 3.69839
194      35.6971 1 2 100 -1657.07 5.54758
195      35.6971 1 2 100 -1657.07 1.11359
196      35.6971 1 2 100 -1657.07 2.96278
197      35.6971 1 2 100 -1657.07 4.81198
198      35.6971 1 2 100 -1657.07 0.377983
199      35.6971 1 2 100 -1657.07 2.22718
200      35.6971 1 2 100 -1657.07 4.07637
201      35.6971 1 2 100 -1657.07 5.92556
202      35.6971 1 2 100 -1657.07 1.49157
203      35.6971 1 2 100 -1657.07 3.34077
204      35.6971 1 2 100 -1657.07 5.18996
205      35.6971 1 2 100 -1657.07 0.755967
206      35.6971 1 2 100 -1657.07 2.60516
207      35.6971 1 2 100 -1657.07 4.45435
208      35.6971 1 2 100 -1657.07 0.0203616
209      35.6971 1 2 100 -1657.07 1.86956
210      35.6971 1 2 100 -1657.07 3.71875
211      35.6971 1 2 100 -1657.07 5.56794
212      35.6971 1 2 100 -1657.07 1.13395
213      35.6971 1 2 100 -1657.07 2.98314
214      35.6971 1 2 100 -1657.07 4.83234
215      35.6971 1 2 100 -1657.07 0.398345
216      35.6971 1 2 100 -1657.07 2.24754
217      35.6971 1 2 100 -1657.07 4.09673
218      35.6971 1 2 100 -1657.07 5.94593
219      35.6971 1 2 100 -1657.07 1.51193
220      35.6971 1 2 100 -1657.07 3.36113
221      35.6971 1 2 100 -1657.07 5.21032
222      35.6971 1 2 100 -1657.07 0.776328
223      35.6971 1 2 100 -1657.07 2.62552
224      35.6971 1 2 100 -1657.07 4.47472
225      35.6971 1 2 100 -1657.07 0.0407232
226      35.6971 1 2 100 -1657.07 1.88992
227      35.6971 1 2 100 -1657.07 3.73911
228      35.6971 1 2 100 -1657.07 5.5883
229      35.6971 1 2 100 -1627.48 0
230      35.6971 1 2 100 -1627.48 1.59177
231      35.6971 1 2 100 -1627.48 3.18355
232      35.6971 1 2 100 -1627.48 4.77532
233      35.6971 1 2 100 -1627.48 0.0839052
234      35.6971 1 2 100 -1627.48 1.67568
235      35.6971 1 2 100 -1627.48 3.26745
236      35.6971 1 2 100 -1627.48 4.85922
237      35.6971 1 2 100 -1627.48 0.16781
238      35.6971 1 2 100 -1627.48 1.75958
239      35.6971 1 2 100 -1627.48 3.35136
240      35.6971 1 2 100 -1627.48 4.94313
241      35.6971 1 2 100 -1627.48 0.251716
242      35.6971 1 2 100 -1627.48 1.84349
243      35.6971 1 2 100 -1627.48 3.43526
244      35.6971 1 2 100 -1627.48 5.02703
245      35.6971 1 2 100 -1627.48 0.335621
246      35.6971 1 2 100 -1627.48 1.92739
247      35.6971 1 2 100 -1627.48 3.51917
248      35.6971 1 2 100 -1627.48 5.11094
249      35.6971 1 2 100 -1627.48 0.419526
250      35.6971 1 2 100 -1627.48 2.0113
251      35.6971 1 2 100 -1627.48 3.60307
252      35.6971 1 2 100 -1627.48 5.19484
253      35.6971 1 2 100 -1627.48 0.503431
254      35.6971 1 2 100 -1627.48 2.0952
255      35.6971 1 2 100 -1627.48 3.68698
256      35.6971 1 2 100 -1627.48 5.27875
257      35.6971 1 2 100 -1627.48 0.587337
258      35.6971 1 2 100 -1627.48 2.17911
259      35.6971 1 2 100 -1627.48 3.77088
260      35.6971 1 2 100 -1627.48 5.36265
261      35.6971 1 2 100 -1627.48 0.671242
262      35.6971 1 2 100 -1627.48 2.26301
263      35.6971 1 2 100 -1627.48 3.85479
264      35.6971 1 2 100 -1627.48 5.44656
265      35.6971 1 2 100 -1627.48 0.755147
266      35.6971 1 2 100 -1627.48 2.34692
267      35.6971 1 2 100 -1597.89 0
268      35.6971 1 2 100 -1597.89 1.33435
269      35.6971 1 2 100 -1597.89 2.6687
270      35.6971 1 2 100 -1597.89 4.00306
271      35.6971 1 2 100 -1597.89 5.33741
272      35.6971 1 2 100 -1597.89 0.388574
273      35.6971 1 2 100 -1597.89 1.72293
274      35.6971 1 2 100 -1597.89 3.05728
275      35.6971 1 2 100 -1597.89 4.39163
276      35.6971 1 2 100 -1597.89 5.72598
277      35.6971 1 2 100 -1597.89 0.777148
278      35.6971 1 2 100 -1597.89 2.1115
279      35.6971 1 2 100 -1597.89 3.44585
280      35.6971 1 2 100 -1597.89 4.7802
281      35.6971 1 2 100 -1597.89 6.11456
282      35.6971 1 2 100 -1597.89 1.16572
283      35.6971 1 2 100 -1597.89 2.50007
284      35.6971 1 2 100 -1597.89 3.83443
285      35.6971 1 2 100 -1597.89 5.16878
286      35.6971 1 2 100 -1597.89 0.219944
287      35.6971 1 2 100 -1597.89 1.5543
288      35.6971 1 2 100 -1597.89 2.88865
289      35.6971 1 2 100 -1597.89 4.223
290      35.6971 1 2 100 -1597.89 5.55735
291      35.6971 1 2 100 -1597.89 0.608518
292      35.6971 1 2 100 -1597.89 1.94287
293      35.6971 1 2 100 -1597.89 3.27722
294      35.6971 1 2 100 -1597.89 4.61157
295      35.6971 1 2 100 -1597.89 5.94593
296      35.6971 1 2 100 -1597.89 0.997092
297      35.6971 1 2 100 -1597.89 2.33144
298      35.6971 1 2 100 -1597.89 3.6658
299      35.6971 1 2 100 -1597.89 5.00015
300      35.6971 1 2 100 -1597.89 0.0513138
301      35.6971 1 2 100 -1597.89 1.38567
302      35.6971 1 2 100 -1597.89 2.72002
303      35.6971 1 2 100 -1597.89 4.05437
304      35.6971 1 2 100 -1597.89 5.38872
305      35.6971 1 2 100 -1568.3 0
306      35.6971 1 2 100 -1568.3 1.07693
307      35.6971 1 2 100 -1568.3 2.15386
308      35.6971 1 2 100 -1568.3 3.23079
309      35.6971 1 2 100 -1568.3 4.30772
310      35.6971 1 2 100 -1568.3 5.38466
311      35.6971 1 2 100 -1568.3 0.178401
312      35.6971 1 2 100 -1568.3 1.25533
313      35.6971 1 2 100 -1568.3 2.33226
314      35.6971 1 2 100 -1568.3 3.40919
315      35.6971 1 2 100 -1568.3 4.48613
316      35.6971 1 2 100 -1568.3 5.56306
317      35.6971 1 2 100 -1568.3 0.356802
318      35.6971 1 2 100 -1568.3 1.43373
319      35.6971 1 2 100 -1568.3 2.51066
320      35.6971 1 2 100 -1568.3 3.5876
321      35.6971 1 2 100 -1568.3 4.66453
322      35.6971 1 2 100 -1568.3 5.74146
323      35.6971 1 2 100 -1568.3 0.535203
324      35.6971 1 2 100 -1568.3 1.61213
325      35.6971 1 2 100 -1568.3 2.68907
326      35.6971 1 2 100 -1568.3 3.766
327      35.6971 1 2 100 -1568.3 4.84293
328      35.6971 1 2 100 -1568.3 5.91986
329      35.6971 1 2 100 -1568.3 0.713604
330      35.6971 1 2 100 -1568.3 1.79054
331      35.6971 1 2 100 -1568.3 2.86747
332      35.6971 1 2 100 -1568.3 3.9444
333      35.6971 1 2 100 -1568.3 5.02133
334      35.6971 1 2 100 -1568.3 6.09826
335      35.6971 1 2 100 -1568.3 0.892005
336      35.6971 1 2 100 -1568.3 1.96894
337      35.6971 1 2 100 -1568.3 3.04587
338      35.6971 1 2 100 -1568.3 4.1228
339      35.6971 1 2 100 -1568.3 5.19973
340      35.6971 1 2 100 -1568.3 6.27666
341      35.6971 1 2 100 -1568.3 1.07041
342      35.6971 1 2 100 -1568.3 2.14734
343      35.6971 1 2 100 -1538.71 0
344      35.6971 1 2 100 -1538.71 0.81951
345      35.6971 1 2 100 -1538.71 1.63902
346      35.6971 1 2 100 -1538.71 2.45853
347      35.6971 1 2 100 -1538.71 3.27804
348      35.6971 1 2 100 -1538.71 4.09755
349      35.6971 1 2 100 -1538.71 4.91706
350      35.6971 1 2 100 -1538.71 5.73657
351      35.6971 1 2 100 -1538.71 0.272897
352      35.6971 1 2 100 -1538.71 1.09241
353      35.6971 1 2 100 -1538.71 1.91192
354      35.6971 1 2 100 -1538.71 2.73143
355      35.6971 1 2 100 -1538.71 3.55094
356      35.6971 1 2 100 -1538.71 4.37045
357      35.6971 1 2 100 -1538.71 5.18996
358      35.6971 1 2 100 -1538.71 6.00947
359      35.6971 1 2 100 -1538.71 0.545794
360      35.6971 1 2 100 -1538.71 1.3653
361      35.6971 1 2 100 -1538.71 2.18481
362      35.6971 1 2 100 -1538.71 3.00432
363      35.6971 1 2 100 -1538.71 3.82383
364      35.6971 1 2 100 -1538.71 4.64335
365      35.6971 1 2 100 -1538.71 5.46286
366      35.6971 1 2 100 -1538.71 6.28237
367      35.6971 1 2 100 -1538.71 0.818691
368      35.6971 1 2 100 -1538.71 1.6382
369      35.6971 1 2 100 -1538.71 2.45771
370      35.6971 1 2 100 -1538.71 3.27722
371      35.6971 1 2 100 -1538.71 4.09673
372      35.6971 1 2 100 -1538.71 4.91624
373      35.6971 1 2 100 -1538.71 5.73575
374      35.6971 1 2 100 -1538.71 0.272077
375      35.6971 1 2 100 -1538.71 1.09159
376      35.6971 1 2 100 -1538.71 1.9111
377      35.6971 1 2 100 -1538.71 2.73061
378      35.6971 1 2 100 -1538.71 3.55012
379      35.6971 1 2 100 -1538.71 4.36963
380      35.6971 1 2 100 -1538.71 5.18914
381      35.6971 1 2 100 -1509.12 0
382      35.6971 1 2 100 -1509.12 0.562089
383      35.6971 1 2 100 -1509.12 1.12418
384      35.6971 1 2 100 -1509.12 1.68627
385      35.6971 1 2 100 -1509.12 2.24836
386      35.6971 1 2 100 -1509.12 2.81045
387      35.6971 1 2 100 -1509.12 3.37254
388      35.6971 1 2 100 -1509.12 3.93463
389      35.6971 1 2 100 -1509.12 4.49672
390      35.6971 1 2 100 -1509.12 5.05881
391      35.6971 1 2 100 -1509.12 5.62089
392      35.6971 1 2 100 -1509.12 6.18298
393      35.6971 1 2 100 -1509.12 0.461889
394      35.6971 1 2 100 -1509.12 1.02398
395      35.6971 1 2 100 -1509.12 1.58607
396      35.6971 1 2 100 -1509.12 2.14816
397      35.6971 1 2 100 -1509.12 2.71025
398      35.6971 1 2 100 -1509.12 3.27234
399      35.6971 1 2 100 -1509.12 3.83443
400      35.6971 1 2 100 -1509.12 4.39651
401      35.6971 1 2 100 -1509.12 4.9586
402      35.6971 1 2 100 -1509.12 5.52069
403      35.6971 1 2 100 -1509.12 6.08278
404      35.6971 1 2 100 -1509.12 0.361688
405      35.6971 1 2 100 -1509.12 0.923777
406      35.6971 1 2 100 -1509.12 1.48587
407      35.6971 1 2 100 -1509.12 2.04796
408      35.6971 1 2 100 -1509.12 2.61005
409      35.6971 1 2 100 -1509.12 3.17214
410      35.6971 1 2 100 -1509.12 3.73422
411      35.6971 1 2 100 -1509.12 4.29631
412      35.6971 1 2 100 -1509.12 4.8584
413      35.6971 1 2 100 -1509.12 5.42049
414      35.6971 1 2 100 -1509.12 5.98258
415      35.6971 1 2 100 -1509.12 0.261487
416      35.6971 1 2 100 -1509.12 0.823576
417      35.6971 1 2 100 -1509.12 1.38567
418      35.6971 1 2 100 -1509.12 1.94776
419      35.6971 1 2 100 -1479.53 0
420      35.6971 1 2 100 -1479.53 0.304669
421      35.6971 1 2 100 -1479.53 0.609337
422      35.6971 1 2 100 -1479.53 0.914006
423      35.6971 1 2 100 -1479.53 1.21867
424      35.6971 1 2 100 -1479.53 1.52334
425      35.6971 1 2 100 -1479.53 1.82801
426      35.6971 1 2 100 -1479.53 2.13268
427      35.6971 1 2 100 -1479.53 2.43735
428      35.6971 1 2 100 -1479.53 2.74202
429      35.6971 1 2 100 -1479.53 3.04669
430      35.6971 1 2 100 -1479.53 3.35136
431      35.6971 1 2 100 -1479.53 3.65602
432      35.6971 1 2 100 -1479.53 3.96069
433      35.6971 1 2 100 -1479.53 4.26536
434      35.6971 1 2 100 -1479.53 4.57003
435      35.6971 1 2 100 -1479.53 4.8747
436      35.6971 1 2 100 -1479.53 5.17937
437      35.6971 1 2 100 -1479.53 5.48404
438      35.6971 1 2 100 -1479.53 5.78871
439      35.6971 1 2 100 -1479.53 6.09337
440      35.6971 1 2 100 -1479.53 0.114857
441      35.6971 1 2 100 -1479.53 0.419526
442      35.6971 1 2 100 -1479.53 0.724195
443      35.6971 1 2 100 -1479.53 1.02886
444      35.6971 1 2 100 -1479.53 1.33353
445      35.6971 1 2 100 -1479.53 1.6382
446      35.6971 1 2 100 -1479.53 1.94287
447      35.6971 1 2 100 -1479.53 2.24754
448      35.6971 1 2 100 -1479.53 2.55221
449      35.6971 1 2 100 -1479.53 2.85688
450      35.6971 1 2 100 -1479.53 3.16154
451      35.6971 1 2 100 -1479.53 3.46621
452      35.6971 1 2 100 -1479.53 3.77088
453      35.6971 1 2 100 -1479.53 4.07555
454      35.6971 1 2 100 -1479.53 4.38022
455      35.6971 1 2 100 -1479.53 4.68489
456      35.6971 1 2 100 -1479.53 4.98956
457      35.6971 1 2 100 -1449.94 0
458      35.6971 1 2 100 -1449.94 0.0472479
459      35.6971 1 2 100 -1449.94 0.0944958
460      35.6971 1 2 100 -1449.94 0.141744
461      35.6971 1 2 100 -1449.94 0.188992
462      35.6971 1 2 100 -1449.94 0.23624
463      35.6971 1 2 100 -1449.94 0.283487
464      35.6971 1 2 100 -1449.94 0.330735
465      35.6971 1 2 100 -1449.94 0.377983
466      35.6971 1 2 100 -1449.94 0.425231
467      35.6971 1 2 100 -1449.94 0.472479
468      35.6971 1 2 100 -1449.94 0.519727
469      35.6971 1 2 100 -1449.94 0.566975
470      35.6971 1 2 100 -1449.94 0.614223
471      35.6971 1 2 100 -1449.94 0.661471
472      35.6971 1 2 100 -1449.94 0.708719
473      35.6971 1 2 100 -1449.94 0.755967
474      35.6971 1 2 100 -1449.94 0.803215
475      35.6971 1 2 100 -1449.94 0.850462
476      35.6971 1 2 100 -1449.94 0.89771
477      35.6971 1 2 100 -1449.94 0.944958
478      35.6971 1 2 100 -1449.94 0.992206
479      35.6971 1 2 100 -1449.94 1.03945
480      35.6971 1 2 100 -1449.94 1.0867
