# Pulseq sequence file
# Created by MATLAB mr toolbox

# Created for Pulseq-CEST
# https://pulseq-cest.github.io/
# Created by: Kai Herz
# Created at: 23-Feb-2023 13:54:00

[VERSION]
major 1
minor 3
revision 1

[DEFINITIONS]
B0 6.95 
B1cwpe 0.499316687 
DCsat 0.952380952 
M0_offset -1560 
Trec 5 
Trec_M0 5 
Tsat 3.985 
n_pulses 38 
num_meas 122 
offsets_ppm -1560 -6 -5.9 -5.8 -5.7 -5.6 -5.5 -5.4 -5.3 -5.2 -5.1 -5 -4.9 -4.8 -4.7 -4.6 -4.5 -4.4 -4.3 -4.2 -4.1 -4 -3.9 -3.8 -3.7 -3.6 -3.5 -3.4 -3.3 -3.2 -3.1 -3 -2.9 -2.8 -2.7 -2.6 -2.5 -2.4 -2.3 -2.2 -2.1 -2 -1.9 -1.8 -1.7 -1.6 -1.5 -1.4 -1.3 -1.2 -1.1 -1 -0.9 -0.8 -0.7 -0.6 -0.5 -0.4 -0.3 -0.2 -0.1 0 0.1 0.2 0.3 0.4 0.5 0.6 0.7 0.8 0.9 1 1.1 1.2 1.3 1.4 1.5 1.6 1.7 1.8 1.9 2 2.1 2.2 2.3 2.4 2.5 2.6 2.7 2.8 2.9 3 3.1 3.2 3.3 3.4 3.5 3.6 3.7 3.8 3.9 4 4.1 4.2 4.3 4.4 4.5 4.6 4.7 4.8 4.9 5 5.1 5.2 5.3 5.4 5.5 5.6 5.7 5.8 5.9 6 
seq_id_string APTw_7T_001_0pt2uT_SincGauss 
td 0.005 
tp 0.1 

# Format of blocks:
#  #  D RF  GX  GY  GZ ADC EXT
[BLOCKS]
   1  1  0   0   0   0  0  0
   2  0  1   0   0   0  0  0
   3  2  0   0   0   0  0  0
   4  0  2   0   0   0  0  0
   5  2  0   0   0   0  0  0
   6  0  3   0   0   0  0  0
   7  2  0   0   0   0  0  0
   8  0  4   0   0   0  0  0
   9  2  0   0   0   0  0  0
  10  0  5   0   0   0  0  0
  11  2  0   0   0   0  0  0
  12  0  6   0   0   0  0  0
  13  2  0   0   0   0  0  0
  14  0  7   0   0   0  0  0
  15  2  0   0   0   0  0  0
  16  0  8   0   0   0  0  0
  17  2  0   0   0   0  0  0
  18  0  9   0   0   0  0  0
  19  2  0   0   0   0  0  0
  20  0 10   0   0   0  0  0
  21  2  0   0   0   0  0  0
  22  0 11   0   0   0  0  0
  23  2  0   0   0   0  0  0
  24  0 12   0   0   0  0  0
  25  2  0   0   0   0  0  0
  26  0 13   0   0   0  0  0
  27  2  0   0   0   0  0  0
  28  0 14   0   0   0  0  0
  29  2  0   0   0   0  0  0
  30  0 15   0   0   0  0  0
  31  2  0   0   0   0  0  0
  32  0 16   0   0   0  0  0
  33  2  0   0   0   0  0  0
  34  0 17   0   0   0  0  0
  35  2  0   0   0   0  0  0
  36  0 18   0   0   0  0  0
  37  2  0   0   0   0  0  0
  38  0 19   0   0   0  0  0
  39  2  0   0   0   0  0  0
  40  0 20   0   0   0  0  0
  41  2  0   0   0   0  0  0
  42  0 21   0   0   0  0  0
  43  2  0   0   0   0  0  0
  44  0 22   0   0   0  0  0
  45  2  0   0   0   0  0  0
  46  0 23   0   0   0  0  0
  47  2  0   0   0   0  0  0
  48  0 24   0   0   0  0  0
  49  2  0   0   0   0  0  0
  50  0 25   0   0   0  0  0
  51  2  0   0   0   0  0  0
  52  0 26   0   0   0  0  0
  53  2  0   0   0   0  0  0
  54  0 27   0   0   0  0  0
  55  2  0   0   0   0  0  0
  56  0 28   0   0   0  0  0
  57  2  0   0   0   0  0  0
  58  0 29   0   0   0  0  0
  59  2  0   0   0   0  0  0
  60  0 30   0   0   0  0  0
  61  2  0   0   0   0  0  0
  62  0 31   0   0   0  0  0
  63  2  0   0   0   0  0  0
  64  0 32   0   0   0  0  0
  65  2  0   0   0   0  0  0
  66  0 33   0   0   0  0  0
  67  2  0   0   0   0  0  0
  68  0 34   0   0   0  0  0
  69  2  0   0   0   0  0  0
  70  0 35   0   0   0  0  0
  71  2  0   0   0   0  0  0
  72  0 36   0   0   0  0  0
  73  2  0   0   0   0  0  0
  74  0 37   0   0   0  0  0
  75  2  0   0   0   0  0  0
  76  0 38   0   0   0  0  0
  77  0  0   0   0   0  1  0
  78  1  0   0   0   0  0  0
  79  0 39   0   0   0  0  0
  80  2  0   0   0   0  0  0
  81  0 40   0   0   0  0  0
  82  2  0   0   0   0  0  0
  83  0 41   0   0   0  0  0
  84  2  0   0   0   0  0  0
  85  0 42   0   0   0  0  0
  86  2  0   0   0   0  0  0
  87  0 43   0   0   0  0  0
  88  2  0   0   0   0  0  0
  89  0 44   0   0   0  0  0
  90  2  0   0   0   0  0  0
  91  0 45   0   0   0  0  0
  92  2  0   0   0   0  0  0
  93  0 46   0   0   0  0  0
  94  2  0   0   0   0  0  0
  95  0 47   0   0   0  0  0
  96  2  0   0   0   0  0  0
  97  0 48   0   0   0  0  0
  98  2  0   0   0   0  0  0
  99  0 49   0   0   0  0  0
 100  2  0   0   0   0  0  0
 101  0 50   0   0   0  0  0
 102  2  0   0   0   0  0  0
 103  0 51   0   0   0  0  0
 104  2  0   0   0   0  0  0
 105  0 52   0   0   0  0  0
 106  2  0   0   0   0  0  0
 107  0 53   0   0   0  0  0
 108  2  0   0   0   0  0  0
 109  0 54   0   0   0  0  0
 110  2  0   0   0   0  0  0
 111  0 55   0   0   0  0  0
 112  2  0   0   0   0  0  0
 113  0 56   0   0   0  0  0
 114  2  0   0   0   0  0  0
 115  0 57   0   0   0  0  0
 116  2  0   0   0   0  0  0
 117  0 58   0   0   0  0  0
 118  2  0   0   0   0  0  0
 119  0 59   0   0   0  0  0
 120  2  0   0   0   0  0  0
 121  0 60   0   0   0  0  0
 122  2  0   0   0   0  0  0
 123  0 61   0   0   0  0  0
 124  2  0   0   0   0  0  0
 125  0 62   0   0   0  0  0
 126  2  0   0   0   0  0  0
 127  0 63   0   0   0  0  0
 128  2  0   0   0   0  0  0
 129  0 64   0   0   0  0  0
 130  2  0   0   0   0  0  0
 131  0 65   0   0   0  0  0
 132  2  0   0   0   0  0  0
 133  0 66   0   0   0  0  0
 134  2  0   0   0   0  0  0
 135  0 67   0   0   0  0  0
 136  2  0   0   0   0  0  0
 137  0 68   0   0   0  0  0
 138  2  0   0   0   0  0  0
 139  0 69   0   0   0  0  0
 140  2  0   0   0   0  0  0
 141  0 70   0   0   0  0  0
 142  2  0   0   0   0  0  0
 143  0 71   0   0   0  0  0
 144  2  0   0   0   0  0  0
 145  0 72   0   0   0  0  0
 146  2  0   0   0   0  0  0
 147  0 73   0   0   0  0  0
 148  2  0   0   0   0  0  0
 149  0 74   0   0   0  0  0
 150  2  0   0   0   0  0  0
 151  0 75   0   0   0  0  0
 152  2  0   0   0   0  0  0
 153  0 76   0   0   0  0  0
 154  0  0   0   0   0  1  0
 155  1  0   0   0   0  0  0
 156  0 77   0   0   0  0  0
 157  2  0   0   0   0  0  0
 158  0 78   0   0   0  0  0
 159  2  0   0   0   0  0  0
 160  0 79   0   0   0  0  0
 161  2  0   0   0   0  0  0
 162  0 80   0   0   0  0  0
 163  2  0   0   0   0  0  0
 164  0 81   0   0   0  0  0
 165  2  0   0   0   0  0  0
 166  0 82   0   0   0  0  0
 167  2  0   0   0   0  0  0
 168  0 83   0   0   0  0  0
 169  2  0   0   0   0  0  0
 170  0 84   0   0   0  0  0
 171  2  0   0   0   0  0  0
 172  0 85   0   0   0  0  0
 173  2  0   0   0   0  0  0
 174  0 86   0   0   0  0  0
 175  2  0   0   0   0  0  0
 176  0 87   0   0   0  0  0
 177  2  0   0   0   0  0  0
 178  0 88   0   0   0  0  0
 179  2  0   0   0   0  0  0
 180  0 89   0   0   0  0  0
 181  2  0   0   0   0  0  0
 182  0 90   0   0   0  0  0
 183  2  0   0   0   0  0  0
 184  0 91   0   0   0  0  0
 185  2  0   0   0   0  0  0
 186  0 92   0   0   0  0  0
 187  2  0   0   0   0  0  0
 188  0 93   0   0   0  0  0
 189  2  0   0   0   0  0  0
 190  0 94   0   0   0  0  0
 191  2  0   0   0   0  0  0
 192  0 95   0   0   0  0  0
 193  2  0   0   0   0  0  0
 194  0 96   0   0   0  0  0
 195  2  0   0   0   0  0  0
 196  0 97   0   0   0  0  0
 197  2  0   0   0   0  0  0
 198  0 98   0   0   0  0  0
 199  2  0   0   0   0  0  0
 200  0 99   0   0   0  0  0
 201  2  0   0   0   0  0  0
 202  0 100   0   0   0  0  0
 203  2  0   0   0   0  0  0
 204  0 101   0   0   0  0  0
 205  2  0   0   0   0  0  0
 206  0 102   0   0   0  0  0
 207  2  0   0   0   0  0  0
 208  0 103   0   0   0  0  0
 209  2  0   0   0   0  0  0
 210  0 104   0   0   0  0  0
 211  2  0   0   0   0  0  0
 212  0 105   0   0   0  0  0
 213  2  0   0   0   0  0  0
 214  0 106   0   0   0  0  0
 215  2  0   0   0   0  0  0
 216  0 107   0   0   0  0  0
 217  2  0   0   0   0  0  0
 218  0 108   0   0   0  0  0
 219  2  0   0   0   0  0  0
 220  0 109   0   0   0  0  0
 221  2  0   0   0   0  0  0
 222  0 110   0   0   0  0  0
 223  2  0   0   0   0  0  0
 224  0 111   0   0   0  0  0
 225  2  0   0   0   0  0  0
 226  0 112   0   0   0  0  0
 227  2  0   0   0   0  0  0
 228  0 113   0   0   0  0  0
 229  2  0   0   0   0  0  0
 230  0 114   0   0   0  0  0
 231  0  0   0   0   0  1  0
 232  1  0   0   0   0  0  0
 233  0 115   0   0   0  0  0
 234  2  0   0   0   0  0  0
 235  0 116   0   0   0  0  0
 236  2  0   0   0   0  0  0
 237  0 117   0   0   0  0  0
 238  2  0   0   0   0  0  0
 239  0 118   0   0   0  0  0
 240  2  0   0   0   0  0  0
 241  0 119   0   0   0  0  0
 242  2  0   0   0   0  0  0
 243  0 120   0   0   0  0  0
 244  2  0   0   0   0  0  0
 245  0 121   0   0   0  0  0
 246  2  0   0   0   0  0  0
 247  0 122   0   0   0  0  0
 248  2  0   0   0   0  0  0
 249  0 123   0   0   0  0  0
 250  2  0   0   0   0  0  0
 251  0 124   0   0   0  0  0
 252  2  0   0   0   0  0  0
 253  0 125   0   0   0  0  0
 254  2  0   0   0   0  0  0
 255  0 126   0   0   0  0  0
 256  2  0   0   0   0  0  0
 257  0 127   0   0   0  0  0
 258  2  0   0   0   0  0  0
 259  0 128   0   0   0  0  0
 260  2  0   0   0   0  0  0
 261  0 129   0   0   0  0  0
 262  2  0   0   0   0  0  0
 263  0 130   0   0   0  0  0
 264  2  0   0   0   0  0  0
 265  0 131   0   0   0  0  0
 266  2  0   0   0   0  0  0
 267  0 132   0   0   0  0  0
 268  2  0   0   0   0  0  0
 269  0 133   0   0   0  0  0
 270  2  0   0   0   0  0  0
 271  0 134   0   0   0  0  0
 272  2  0   0   0   0  0  0
 273  0 135   0   0   0  0  0
 274  2  0   0   0   0  0  0
 275  0 136   0   0   0  0  0
 276  2  0   0   0   0  0  0
 277  0 137   0   0   0  0  0
 278  2  0   0   0   0  0  0
 279  0 138   0   0   0  0  0
 280  2  0   0   0   0  0  0
 281  0 139   0   0   0  0  0
 282  2  0   0   0   0  0  0
 283  0 140   0   0   0  0  0
 284  2  0   0   0   0  0  0
 285  0 141   0   0   0  0  0
 286  2  0   0   0   0  0  0
 287  0 142   0   0   0  0  0
 288  2  0   0   0   0  0  0
 289  0 143   0   0   0  0  0
 290  2  0   0   0   0  0  0
 291  0 144   0   0   0  0  0
 292  2  0   0   0   0  0  0
 293  0 145   0   0   0  0  0
 294  2  0   0   0   0  0  0
 295  0 146   0   0   0  0  0
 296  2  0   0   0   0  0  0
 297  0 147   0   0   0  0  0
 298  2  0   0   0   0  0  0
 299  0 148   0   0   0  0  0
 300  2  0   0   0   0  0  0
 301  0 149   0   0   0  0  0
 302  2  0   0   0   0  0  0
 303  0 150   0   0   0  0  0
 304  2  0   0   0   0  0  0
 305  0 151   0   0   0  0  0
 306  2  0   0   0   0  0  0
 307  0 152   0   0   0  0  0
 308  0  0   0   0   0  1  0
[RF]
1      34.6232 1 2 100 -461613 0
2      34.6232 1 2 100 -461613 4.19164
3      34.6232 1 2 100 -461613 2.10009
4      34.6232 1 2 100 -461613 0.00854513
5      34.6232 1 2 100 -461613 4.20018
6      34.6232 1 2 100 -461613 2.10864
7      34.6232 1 2 100 -461613 0.0170903
8      34.6232 1 2 100 -461613 4.20873
9      34.6232 1 2 100 -461613 2.11718
10      34.6232 1 2 100 -461613 0.0256354
11      34.6232 1 2 100 -461613 4.21727
12      34.6232 1 2 100 -461613 2.12573
13      34.6232 1 2 100 -461613 0.0341805
14      34.6232 1 2 100 -461613 4.22582
15      34.6232 1 2 100 -461613 2.13427
16      34.6232 1 2 100 -461613 0.0427257
17      34.6232 1 2 100 -461613 4.23436
18      34.6232 1 2 100 -461613 2.14282
19      34.6232 1 2 100 -461613 0.0512708
20      34.6232 1 2 100 -461613 4.24291
21      34.6232 1 2 100 -461613 2.15136
22      34.6232 1 2 100 -461613 0.0598159
23      34.6232 1 2 100 -461613 4.25145
24      34.6232 1 2 100 -461613 2.15991
25      34.6232 1 2 100 -461613 0.0683611
26      34.6232 1 2 100 -461613 4.26
27      34.6232 1 2 100 -461613 2.16845
28      34.6232 1 2 100 -461613 0.0769062
29      34.6232 1 2 100 -461613 4.26854
30      34.6232 1 2 100 -461613 2.177
31      34.6232 1 2 100 -461613 0.0854513
32      34.6232 1 2 100 -461613 4.27709
33      34.6232 1 2 100 -461613 2.18554
34      34.6232 1 2 100 -461613 0.0939965
35      34.6232 1 2 100 -461613 4.28564
36      34.6232 1 2 100 -461613 2.19409
37      34.6232 1 2 100 -461613 0.102542
38      34.6232 1 2 100 -461613 4.29418
39      34.6232 1 2 100 -1775.44 0
40      34.6232 1 2 100 -1775.44 2.86772
41      34.6232 1 2 100 -1775.44 5.73544
42      34.6232 1 2 100 -1775.44 2.31998
43      34.6232 1 2 100 -1775.44 5.1877
44      34.6232 1 2 100 -1775.44 1.77224
45      34.6232 1 2 100 -1775.44 4.63996
46      34.6232 1 2 100 -1775.44 1.22449
47      34.6232 1 2 100 -1775.44 4.09221
48      34.6232 1 2 100 -1775.44 0.676749
49      34.6232 1 2 100 -1775.44 3.54447
50      34.6232 1 2 100 -1775.44 0.129006
51      34.6232 1 2 100 -1775.44 2.99673
52      34.6232 1 2 100 -1775.44 5.86445
53      34.6232 1 2 100 -1775.44 2.44898
54      34.6232 1 2 100 -1775.44 5.31671
55      34.6232 1 2 100 -1775.44 1.90124
56      34.6232 1 2 100 -1775.44 4.76896
57      34.6232 1 2 100 -1775.44 1.3535
58      34.6232 1 2 100 -1775.44 4.22122
59      34.6232 1 2 100 -1775.44 0.805756
60      34.6232 1 2 100 -1775.44 3.67348
61      34.6232 1 2 100 -1775.44 0.258013
62      34.6232 1 2 100 -1775.44 3.12573
63      34.6232 1 2 100 -1775.44 5.99346
64      34.6232 1 2 100 -1775.44 2.57799
65      34.6232 1 2 100 -1775.44 5.44571
66      34.6232 1 2 100 -1775.44 2.03025
67      34.6232 1 2 100 -1775.44 4.89797
68      34.6232 1 2 100 -1775.44 1.48251
69      34.6232 1 2 100 -1775.44 4.35023
70      34.6232 1 2 100 -1775.44 0.934762
71      34.6232 1 2 100 -1775.44 3.80248
72      34.6232 1 2 100 -1775.44 0.387019
73      34.6232 1 2 100 -1775.44 3.25474
74      34.6232 1 2 100 -1775.44 6.12246
75      34.6232 1 2 100 -1775.44 2.707
76      34.6232 1 2 100 -1775.44 5.57472
77      34.6232 1 2 100 -1745.85 0
78      34.6232 1 2 100 -1745.85 2.61049
79      34.6232 1 2 100 -1745.85 5.22097
80      34.6232 1 2 100 -1745.85 1.54827
81      34.6232 1 2 100 -1745.85 4.15876
82      34.6232 1 2 100 -1745.85 0.486061
83      34.6232 1 2 100 -1745.85 3.09655
84      34.6232 1 2 100 -1745.85 5.70703
85      34.6232 1 2 100 -1745.85 2.03433
86      34.6232 1 2 100 -1745.85 4.64482
87      34.6232 1 2 100 -1745.85 0.972122
88      34.6232 1 2 100 -1745.85 3.58261
89      34.6232 1 2 100 -1745.85 6.19309
90      34.6232 1 2 100 -1745.85 2.5204
91      34.6232 1 2 100 -1745.85 5.13088
92      34.6232 1 2 100 -1745.85 1.45818
93      34.6232 1 2 100 -1745.85 4.06867
94      34.6232 1 2 100 -1745.85 0.39597
95      34.6232 1 2 100 -1745.85 3.00646
96      34.6232 1 2 100 -1745.85 5.61694
97      34.6232 1 2 100 -1745.85 1.94424
98      34.6232 1 2 100 -1745.85 4.55473
99      34.6232 1 2 100 -1745.85 0.882031
100      34.6232 1 2 100 -1745.85 3.49252
101      34.6232 1 2 100 -1745.85 6.103
102      34.6232 1 2 100 -1745.85 2.4303
103      34.6232 1 2 100 -1745.85 5.04079
104      34.6232 1 2 100 -1745.85 1.36809
105      34.6232 1 2 100 -1745.85 3.97858
106      34.6232 1 2 100 -1745.85 0.305879
107      34.6232 1 2 100 -1745.85 2.91637
108      34.6232 1 2 100 -1745.85 5.52685
109      34.6232 1 2 100 -1745.85 1.85415
110      34.6232 1 2 100 -1745.85 4.46464
111      34.6232 1 2 100 -1745.85 0.79194
112      34.6232 1 2 100 -1745.85 3.40243
113      34.6232 1 2 100 -1745.85 6.01291
114      34.6232 1 2 100 -1745.85 2.34021
115      34.6232 1 2 100 -1716.25 0
116      34.6232 1 2 100 -1716.25 2.35325
117      34.6232 1 2 100 -1716.25 4.7065
118      34.6232 1 2 100 -1716.25 0.776569
119      34.6232 1 2 100 -1716.25 3.12982
120      34.6232 1 2 100 -1716.25 5.48307
121      34.6232 1 2 100 -1716.25 1.55314
122      34.6232 1 2 100 -1716.25 3.90639
123      34.6232 1 2 100 -1716.25 6.25964
124      34.6232 1 2 100 -1716.25 2.32971
125      34.6232 1 2 100 -1716.25 4.68296
126      34.6232 1 2 100 -1716.25 0.753025
127      34.6232 1 2 100 -1716.25 3.10628
128      34.6232 1 2 100 -1716.25 5.45953
129      34.6232 1 2 100 -1716.25 1.52959
130      34.6232 1 2 100 -1716.25 3.88285
131      34.6232 1 2 100 -1716.25 6.2361
132      34.6232 1 2 100 -1716.25 2.30616
133      34.6232 1 2 100 -1716.25 4.65941
134      34.6232 1 2 100 -1716.25 0.72948
135      34.6232 1 2 100 -1716.25 3.08273
136      34.6232 1 2 100 -1716.25 5.43598
137      34.6232 1 2 100 -1716.25 1.50605
138      34.6232 1 2 100 -1716.25 3.8593
139      34.6232 1 2 100 -1716.25 6.21255
140      34.6232 1 2 100 -1716.25 2.28262
141      34.6232 1 2 100 -1716.25 4.63587
142      34.6232 1 2 100 -1716.25 0.705936
143      34.6232 1 2 100 -1716.25 3.05919
144      34.6232 1 2 100 -1716.25 5.41244
145      34.6232 1 2 100 -1716.25 1.48251
146      34.6232 1 2 100 -1716.25 3.83576
147      34.6232 1 2 100 -1716.25 6.18901
148      34.6232 1 2 100 -1716.25 2.25907
149      34.6232 1 2 100 -1716.25 4.61233
150      34.6232 1 2 100 -1716.25 0.682392
151      34.6232 1 2 100 -1716.25 3.03564
152      34.6232 1 2 100 -1716.25 5.38889
153      34.6232 1 2 100 -1686.66 0
154      34.6232 1 2 100 -1686.66 2.09602
155      34.6232 1 2 100 -1686.66 4.19203
156      34.6232 1 2 100 -1686.66 0.00486444
157      34.6232 1 2 100 -1686.66 2.10088
158      34.6232 1 2 100 -1686.66 4.1969
159      34.6232 1 2 100 -1686.66 0.00972888
160      34.6232 1 2 100 -1686.66 2.10575
161      34.6232 1 2 100 -1686.66 4.20176
162      34.6232 1 2 100 -1686.66 0.0145933
163      34.6232 1 2 100 -1686.66 2.11061
164      34.6232 1 2 100 -1686.66 4.20663
165      34.6232 1 2 100 -1686.66 0.0194578
166      34.6232 1 2 100 -1686.66 2.11547
167      34.6232 1 2 100 -1686.66 4.21149
168      34.6232 1 2 100 -1686.66 0.0243222
169      34.6232 1 2 100 -1686.66 2.12034
170      34.6232 1 2 100 -1686.66 4.21636
171      34.6232 1 2 100 -1686.66 0.0291867
172      34.6232 1 2 100 -1686.66 2.1252
173      34.6232 1 2 100 -1686.66 4.22122
174      34.6232 1 2 100 -1686.66 0.0340511
175      34.6232 1 2 100 -1686.66 2.13007
176      34.6232 1 2 100 -1686.66 4.22608
177      34.6232 1 2 100 -1686.66 0.0389155
178      34.6232 1 2 100 -1686.66 2.13493
179      34.6232 1 2 100 -1686.66 4.23095
180      34.6232 1 2 100 -1686.66 0.04378
181      34.6232 1 2 100 -1686.66 2.1398
182      34.6232 1 2 100 -1686.66 4.23581
183      34.6232 1 2 100 -1686.66 0.0486444
184      34.6232 1 2 100 -1686.66 2.14466
185      34.6232 1 2 100 -1686.66 4.24068
186      34.6232 1 2 100 -1686.66 0.0535089
187      34.6232 1 2 100 -1686.66 2.14953
188      34.6232 1 2 100 -1686.66 4.24554
189      34.6232 1 2 100 -1686.66 0.0583733
190      34.6232 1 2 100 -1686.66 2.15439
191      34.6232 1 2 100 -1657.07 0
192      34.6232 1 2 100 -1657.07 1.83878
193      34.6232 1 2 100 -1657.07 3.67756
194      34.6232 1 2 100 -1657.07 5.51635
195      34.6232 1 2 100 -1657.07 1.07194
196      34.6232 1 2 100 -1657.07 2.91072
197      34.6232 1 2 100 -1657.07 4.74951
198      34.6232 1 2 100 -1657.07 0.305101
199      34.6232 1 2 100 -1657.07 2.14388
200      34.6232 1 2 100 -1657.07 3.98266
201      34.6232 1 2 100 -1657.07 5.82145
202      34.6232 1 2 100 -1657.07 1.37704
203      34.6232 1 2 100 -1657.07 3.21582
204      34.6232 1 2 100 -1657.07 5.05461
205      34.6232 1 2 100 -1657.07 0.610203
206      34.6232 1 2 100 -1657.07 2.44898
207      34.6232 1 2 100 -1657.07 4.28777
208      34.6232 1 2 100 -1657.07 6.12655
209      34.6232 1 2 100 -1657.07 1.68214
210      34.6232 1 2 100 -1657.07 3.52093
211      34.6232 1 2 100 -1657.07 5.35971
212      34.6232 1 2 100 -1657.07 0.915304
213      34.6232 1 2 100 -1657.07 2.75409
214      34.6232 1 2 100 -1657.07 4.59287
215      34.6232 1 2 100 -1657.07 0.148464
216      34.6232 1 2 100 -1657.07 1.98725
217      34.6232 1 2 100 -1657.07 3.82603
218      34.6232 1 2 100 -1657.07 5.66481
219      34.6232 1 2 100 -1657.07 1.22041
220      34.6232 1 2 100 -1657.07 3.05919
221      34.6232 1 2 100 -1657.07 4.89797
222      34.6232 1 2 100 -1657.07 0.453566
223      34.6232 1 2 100 -1657.07 2.29235
224      34.6232 1 2 100 -1657.07 4.13113
225      34.6232 1 2 100 -1657.07 5.96991
226      34.6232 1 2 100 -1657.07 1.52551
227      34.6232 1 2 100 -1657.07 3.36429
228      34.6232 1 2 100 -1657.07 5.20307
229      34.6232 1 2 100 -1627.48 0
230      34.6232 1 2 100 -1627.48 1.58155
231      34.6232 1 2 100 -1627.48 3.16309
232      34.6232 1 2 100 -1627.48 4.74464
233      34.6232 1 2 100 -1627.48 0.0430021
234      34.6232 1 2 100 -1627.48 1.62455
235      34.6232 1 2 100 -1627.48 3.2061
236      34.6232 1 2 100 -1627.48 4.78764
237      34.6232 1 2 100 -1627.48 0.0860042
238      34.6232 1 2 100 -1627.48 1.66755
239      34.6232 1 2 100 -1627.48 3.2491
240      34.6232 1 2 100 -1627.48 4.83064
241      34.6232 1 2 100 -1627.48 0.129006
242      34.6232 1 2 100 -1627.48 1.71055
243      34.6232 1 2 100 -1627.48 3.2921
244      34.6232 1 2 100 -1627.48 4.87365
245      34.6232 1 2 100 -1627.48 0.172008
246      34.6232 1 2 100 -1627.48 1.75356
247      34.6232 1 2 100 -1627.48 3.3351
248      34.6232 1 2 100 -1627.48 4.91665
249      34.6232 1 2 100 -1627.48 0.215011
250      34.6232 1 2 100 -1627.48 1.79656
251      34.6232 1 2 100 -1627.48 3.3781
252      34.6232 1 2 100 -1627.48 4.95965
253      34.6232 1 2 100 -1627.48 0.258013
254      34.6232 1 2 100 -1627.48 1.83956
255      34.6232 1 2 100 -1627.48 3.42111
256      34.6232 1 2 100 -1627.48 5.00265
257      34.6232 1 2 100 -1627.48 0.301015
258      34.6232 1 2 100 -1627.48 1.88256
259      34.6232 1 2 100 -1627.48 3.46411
260      34.6232 1 2 100 -1627.48 5.04566
261      34.6232 1 2 100 -1627.48 0.344017
262      34.6232 1 2 100 -1627.48 1.92556
263      34.6232 1 2 100 -1627.48 3.50711
264      34.6232 1 2 100 -1627.48 5.08866
265      34.6232 1 2 100 -1627.48 0.387019
266      34.6232 1 2 100 -1627.48 1.96857
267      34.6232 1 2 100 -1597.89 0
268      34.6232 1 2 100 -1597.89 1.32431
269      34.6232 1 2 100 -1597.89 2.64862
270      34.6232 1 2 100 -1597.89 3.97294
271      34.6232 1 2 100 -1597.89 5.29725
272      34.6232 1 2 100 -1597.89 0.338375
273      34.6232 1 2 100 -1597.89 1.66269
274      34.6232 1 2 100 -1597.89 2.987
275      34.6232 1 2 100 -1597.89 4.31131
276      34.6232 1 2 100 -1597.89 5.63562
277      34.6232 1 2 100 -1597.89 0.676749
278      34.6232 1 2 100 -1597.89 2.00106
279      34.6232 1 2 100 -1597.89 3.32537
280      34.6232 1 2 100 -1597.89 4.64969
281      34.6232 1 2 100 -1597.89 5.974
282      34.6232 1 2 100 -1597.89 1.01512
283      34.6232 1 2 100 -1597.89 2.33944
284      34.6232 1 2 100 -1597.89 3.66375
285      34.6232 1 2 100 -1597.89 4.98806
286      34.6232 1 2 100 -1597.89 0.0291867
287      34.6232 1 2 100 -1597.89 1.3535
288      34.6232 1 2 100 -1597.89 2.67781
289      34.6232 1 2 100 -1597.89 4.00212
290      34.6232 1 2 100 -1597.89 5.32643
291      34.6232 1 2 100 -1597.89 0.367561
292      34.6232 1 2 100 -1597.89 1.69187
293      34.6232 1 2 100 -1597.89 3.01619
294      34.6232 1 2 100 -1597.89 4.3405
295      34.6232 1 2 100 -1597.89 5.66481
296      34.6232 1 2 100 -1597.89 0.705936
297      34.6232 1 2 100 -1597.89 2.03025
298      34.6232 1 2 100 -1597.89 3.35456
299      34.6232 1 2 100 -1597.89 4.67887
300      34.6232 1 2 100 -1597.89 6.00318
301      34.6232 1 2 100 -1597.89 1.04431
302      34.6232 1 2 100 -1597.89 2.36862
303      34.6232 1 2 100 -1597.89 3.69293
304      34.6232 1 2 100 -1597.89 5.01725
305      34.6232 1 2 100 -1568.3 0
306      34.6232 1 2 100 -1568.3 1.06708
307      34.6232 1 2 100 -1568.3 2.13415
308      34.6232 1 2 100 -1568.3 3.20123
309      34.6232 1 2 100 -1568.3 4.26831
310      34.6232 1 2 100 -1568.3 5.33539
311      34.6232 1 2 100 -1568.3 0.119277
312      34.6232 1 2 100 -1568.3 1.18635
313      34.6232 1 2 100 -1568.3 2.25343
314      34.6232 1 2 100 -1568.3 3.32051
315      34.6232 1 2 100 -1568.3 4.38759
316      34.6232 1 2 100 -1568.3 5.45466
317      34.6232 1 2 100 -1568.3 0.238555
318      34.6232 1 2 100 -1568.3 1.30563
319      34.6232 1 2 100 -1568.3 2.37271
320      34.6232 1 2 100 -1568.3 3.43979
321      34.6232 1 2 100 -1568.3 4.50686
322      34.6232 1 2 100 -1568.3 5.57394
323      34.6232 1 2 100 -1568.3 0.357832
324      34.6232 1 2 100 -1568.3 1.42491
325      34.6232 1 2 100 -1568.3 2.49199
326      34.6232 1 2 100 -1568.3 3.55906
327      34.6232 1 2 100 -1568.3 4.62614
328      34.6232 1 2 100 -1568.3 5.69322
329      34.6232 1 2 100 -1568.3 0.47711
330      34.6232 1 2 100 -1568.3 1.54419
331      34.6232 1 2 100 -1568.3 2.61126
332      34.6232 1 2 100 -1568.3 3.67834
333      34.6232 1 2 100 -1568.3 4.74542
334      34.6232 1 2 100 -1568.3 5.8125
335      34.6232 1 2 100 -1568.3 0.596387
336      34.6232 1 2 100 -1568.3 1.66346
337      34.6232 1 2 100 -1568.3 2.73054
338      34.6232 1 2 100 -1568.3 3.79762
339      34.6232 1 2 100 -1568.3 4.8647
340      34.6232 1 2 100 -1568.3 5.93177
341      34.6232 1 2 100 -1568.3 0.715665
342      34.6232 1 2 100 -1568.3 1.78274
343      34.6232 1 2 100 -1538.71 0
344      34.6232 1 2 100 -1538.71 0.809842
345      34.6232 1 2 100 -1538.71 1.61968
346      34.6232 1 2 100 -1538.71 2.42953
347      34.6232 1 2 100 -1538.71 3.23937
348      34.6232 1 2 100 -1538.71 4.04921
349      34.6232 1 2 100 -1538.71 4.85905
350      34.6232 1 2 100 -1538.71 5.6689
351      34.6232 1 2 100 -1538.71 0.195553
352      34.6232 1 2 100 -1538.71 1.0054
353      34.6232 1 2 100 -1538.71 1.81524
354      34.6232 1 2 100 -1538.71 2.62508
355      34.6232 1 2 100 -1538.71 3.43492
356      34.6232 1 2 100 -1538.71 4.24476
357      34.6232 1 2 100 -1538.71 5.05461
358      34.6232 1 2 100 -1538.71 5.86445
359      34.6232 1 2 100 -1538.71 0.391106
360      34.6232 1 2 100 -1538.71 1.20095
361      34.6232 1 2 100 -1538.71 2.01079
362      34.6232 1 2 100 -1538.71 2.82063
363      34.6232 1 2 100 -1538.71 3.63047
364      34.6232 1 2 100 -1538.71 4.44032
365      34.6232 1 2 100 -1538.71 5.25016
366      34.6232 1 2 100 -1538.71 6.06
367      34.6232 1 2 100 -1538.71 0.586658
368      34.6232 1 2 100 -1538.71 1.3965
369      34.6232 1 2 100 -1538.71 2.20634
370      34.6232 1 2 100 -1538.71 3.01619
371      34.6232 1 2 100 -1538.71 3.82603
372      34.6232 1 2 100 -1538.71 4.63587
373      34.6232 1 2 100 -1538.71 5.44571
374      34.6232 1 2 100 -1538.71 6.25555
375      34.6232 1 2 100 -1538.71 0.782211
376      34.6232 1 2 100 -1538.71 1.59205
377      34.6232 1 2 100 -1538.71 2.4019
378      34.6232 1 2 100 -1538.71 3.21174
379      34.6232 1 2 100 -1538.71 4.02158
380      34.6232 1 2 100 -1538.71 4.83142
381      34.6232 1 2 100 -1509.12 0
382      34.6232 1 2 100 -1509.12 0.552607
383      34.6232 1 2 100 -1509.12 1.10521
384      34.6232 1 2 100 -1509.12 1.65782
385      34.6232 1 2 100 -1509.12 2.21043
386      34.6232 1 2 100 -1509.12 2.76304
387      34.6232 1 2 100 -1509.12 3.31564
388      34.6232 1 2 100 -1509.12 3.86825
389      34.6232 1 2 100 -1509.12 4.42086
390      34.6232 1 2 100 -1509.12 4.97347
391      34.6232 1 2 100 -1509.12 5.52607
392      34.6232 1 2 100 -1509.12 6.07868
393      34.6232 1 2 100 -1509.12 0.348104
394      34.6232 1 2 100 -1509.12 0.900711
395      34.6232 1 2 100 -1509.12 1.45332
396      34.6232 1 2 100 -1509.12 2.00593
397      34.6232 1 2 100 -1509.12 2.55853
398      34.6232 1 2 100 -1509.12 3.11114
399      34.6232 1 2 100 -1509.12 3.66375
400      34.6232 1 2 100 -1509.12 4.21636
401      34.6232 1 2 100 -1509.12 4.76896
402      34.6232 1 2 100 -1509.12 5.32157
403      34.6232 1 2 100 -1509.12 5.87418
404      34.6232 1 2 100 -1509.12 0.1436
405      34.6232 1 2 100 -1509.12 0.696207
406      34.6232 1 2 100 -1509.12 1.24881
407      34.6232 1 2 100 -1509.12 1.80142
408      34.6232 1 2 100 -1509.12 2.35403
409      34.6232 1 2 100 -1509.12 2.90664
410      34.6232 1 2 100 -1509.12 3.45924
411      34.6232 1 2 100 -1509.12 4.01185
412      34.6232 1 2 100 -1509.12 4.56446
413      34.6232 1 2 100 -1509.12 5.11707
414      34.6232 1 2 100 -1509.12 5.66967
415      34.6232 1 2 100 -1509.12 6.22228
416      34.6232 1 2 100 -1509.12 0.491703
417      34.6232 1 2 100 -1509.12 1.04431
418      34.6232 1 2 100 -1509.12 1.59692
419      34.6232 1 2 100 -1479.53 0
420      34.6232 1 2 100 -1479.53 0.295373
421      34.6232 1 2 100 -1479.53 0.590745
422      34.6232 1 2 100 -1479.53 0.886118
423      34.6232 1 2 100 -1479.53 1.18149
424      34.6232 1 2 100 -1479.53 1.47686
425      34.6232 1 2 100 -1479.53 1.77224
426      34.6232 1 2 100 -1479.53 2.06761
427      34.6232 1 2 100 -1479.53 2.36298
428      34.6232 1 2 100 -1479.53 2.65835
429      34.6232 1 2 100 -1479.53 2.95373
430      34.6232 1 2 100 -1479.53 3.2491
431      34.6232 1 2 100 -1479.53 3.54447
432      34.6232 1 2 100 -1479.53 3.83984
433      34.6232 1 2 100 -1479.53 4.13522
434      34.6232 1 2 100 -1479.53 4.43059
435      34.6232 1 2 100 -1479.53 4.72596
436      34.6232 1 2 100 -1479.53 5.02133
437      34.6232 1 2 100 -1479.53 5.31671
438      34.6232 1 2 100 -1479.53 5.61208
439      34.6232 1 2 100 -1479.53 5.90745
440      34.6232 1 2 100 -1479.53 6.20282
441      34.6232 1 2 100 -1479.53 0.215011
442      34.6232 1 2 100 -1479.53 0.510383
443      34.6232 1 2 100 -1479.53 0.805756
444      34.6232 1 2 100 -1479.53 1.10113
445      34.6232 1 2 100 -1479.53 1.3965
446      34.6232 1 2 100 -1479.53 1.69187
447      34.6232 1 2 100 -1479.53 1.98725
448      34.6232 1 2 100 -1479.53 2.28262
449      34.6232 1 2 100 -1479.53 2.57799
450      34.6232 1 2 100 -1479.53 2.87336
451      34.6232 1 2 100 -1479.53 3.16874
452      34.6232 1 2 100 -1479.53 3.46411
453      34.6232 1 2 100 -1479.53 3.75948
454      34.6232 1 2 100 -1479.53 4.05485
455      34.6232 1 2 100 -1479.53 4.35023
456      34.6232 1 2 100 -1479.53 4.6456
457      34.6232 1 2 100 -1449.94 0
458      34.6232 1 2 100 -1449.94 0.0381377
459      34.6232 1 2 100 -1449.94 0.0762754
460      34.6232 1 2 100 -1449.94 0.114413
461      34.6232 1 2 100 -1449.94 0.152551
462      34.6232 1 2 100 -1449.94 0.190688
463      34.6232 1 2 100 -1449.94 0.228826
464      34.6232 1 2 100 -1449.94 0.266964
465      34.6232 1 2 100 -1449.94 0.305101
466      34.6232 1 2 100 -1449.94 0.343239
467      34.6232 1 2 100 -1449.94 0.381377
468      34.6232 1 2 100 -1449.94 0.419514
469      34.6232 1 2 100 -1449.94 0.457652
470      34.6232 1 2 100 -1449.94 0.49579
471      34.6232 1 2 100 -1449.94 0.533927
472      34.6232 1 2 100 -1449.94 0.572065
473      34.6232 1 2 100 -1449.94 0.610203
474      34.6232 1 2 100 -1449.94 0.648341
475      34.6232 1 2 100 -1449.94 0.686478
476      34.6232 1 2 100 -1449.94 0.724616
477      34.6232 1 2 100 -1449.94 0.762754
478      34.6232 1 2 100 -1449.94 0.800891
479      34.6232 1 2 100 -1449.94 0.839029
480      34.6232 1 2 100 -1449.94 0.877167
