# Pulseq sequence file
# Created by MATLAB mr toolbox

# Created for Pulseq-CEST
# https://pulseq-cest.github.io/
# Created by: Kai Herz
# Created at: 25-Feb-2023 15:31:30

[VERSION]
major 1
minor 3
revision 1

[DEFINITIONS]
B0 3 
B1cwpe 0.499659588 
DCsat 0.952380952 
M0_offset -1560 
Trec 5 
Trec_M0 5 
Tsat 3.985 
n_pulses 38 
num_meas 122 
offsets_ppm -1560 -6 -5.9 -5.8 -5.7 -5.6 -5.5 -5.4 -5.3 -5.2 -5.1 -5 -4.9 -4.8 -4.7 -4.6 -4.5 -4.4 -4.3 -4.2 -4.1 -4 -3.9 -3.8 -3.7 -3.6 -3.5 -3.4 -3.3 -3.2 -3.1 -3 -2.9 -2.8 -2.7 -2.6 -2.5 -2.4 -2.3 -2.2 -2.1 -2 -1.9 -1.8 -1.7 -1.6 -1.5 -1.4 -1.3 -1.2 -1.1 -1 -0.9 -0.8 -0.7 -0.6 -0.5 -0.4 -0.3 -0.2 -0.1 0 0.1 0.2 0.3 0.4 0.5 0.6 0.7 0.8 0.9 1 1.1 1.2 1.3 1.4 1.5 1.6 1.7 1.8 1.9 2 2.1 2.2 2.3 2.4 2.5 2.6 2.7 2.8 2.9 3 3.1 3.2 3.3 3.4 3.5 3.6 3.7 3.8 3.9 4 4.1 4.2 4.3 4.4 4.5 4.6 4.7 4.8 4.9 5 5.1 5.2 5.3 5.4 5.5 5.6 5.7 5.8 5.9 6 
seq_id_string APTw_3T_001_0pt5uT_Bloch 
td 0.005 
tp 0.1 

# Format of blocks:
#  #  D RF  GX  GY  GZ ADC EXT
[BLOCKS]
   1  1  0   0   0   0  0  0
   2  0  1   0   0   0  0  0
   3  2  0   0   0   0  0  0
   4  0  2   0   0   0  0  0
   5  2  0   0   0   0  0  0
   6  0  3   0   0   0  0  0
   7  2  0   0   0   0  0  0
   8  0  4   0   0   0  0  0
   9  2  0   0   0   0  0  0
  10  0  5   0   0   0  0  0
  11  2  0   0   0   0  0  0
  12  0  6   0   0   0  0  0
  13  2  0   0   0   0  0  0
  14  0  7   0   0   0  0  0
  15  2  0   0   0   0  0  0
  16  0  8   0   0   0  0  0
  17  2  0   0   0   0  0  0
  18  0  9   0   0   0  0  0
  19  2  0   0   0   0  0  0
  20  0 10   0   0   0  0  0
  21  2  0   0   0   0  0  0
  22  0 11   0   0   0  0  0
  23  2  0   0   0   0  0  0
  24  0 12   0   0   0  0  0
  25  2  0   0   0   0  0  0
  26  0 13   0   0   0  0  0
  27  2  0   0   0   0  0  0
  28  0 14   0   0   0  0  0
  29  2  0   0   0   0  0  0
  30  0 15   0   0   0  0  0
  31  2  0   0   0   0  0  0
  32  0 16   0   0   0  0  0
  33  2  0   0   0   0  0  0
  34  0 17   0   0   0  0  0
  35  2  0   0   0   0  0  0
  36  0 18   0   0   0  0  0
  37  2  0   0   0   0  0  0
  38  0 19   0   0   0  0  0
  39  2  0   0   0   0  0  0
  40  0 20   0   0   0  0  0
  41  2  0   0   0   0  0  0
  42  0 21   0   0   0  0  0
  43  2  0   0   0   0  0  0
  44  0 22   0   0   0  0  0
  45  2  0   0   0   0  0  0
  46  0 23   0   0   0  0  0
  47  2  0   0   0   0  0  0
  48  0 24   0   0   0  0  0
  49  2  0   0   0   0  0  0
  50  0 25   0   0   0  0  0
  51  2  0   0   0   0  0  0
  52  0 26   0   0   0  0  0
  53  2  0   0   0   0  0  0
  54  0 27   0   0   0  0  0
  55  2  0   0   0   0  0  0
  56  0 28   0   0   0  0  0
  57  2  0   0   0   0  0  0
  58  0 29   0   0   0  0  0
  59  2  0   0   0   0  0  0
  60  0 30   0   0   0  0  0
  61  2  0   0   0   0  0  0
  62  0 31   0   0   0  0  0
  63  2  0   0   0   0  0  0
  64  0 32   0   0   0  0  0
  65  2  0   0   0   0  0  0
  66  0 33   0   0   0  0  0
  67  2  0   0   0   0  0  0
  68  0 34   0   0   0  0  0
  69  2  0   0   0   0  0  0
  70  0 35   0   0   0  0  0
  71  2  0   0   0   0  0  0
  72  0 36   0   0   0  0  0
  73  2  0   0   0   0  0  0
  74  0 37   0   0   0  0  0
  75  2  0   0   0   0  0  0
  76  0 38   0   0   0  0  0
  77  0  0   1   1   1  0  0
  78  0  0   0   0   0  1  0
  79  1  0   0   0   0  0  0
  80  0 39   0   0   0  0  0
  81  2  0   0   0   0  0  0
  82  0 40   0   0   0  0  0
  83  2  0   0   0   0  0  0
  84  0 41   0   0   0  0  0
  85  2  0   0   0   0  0  0
  86  0 42   0   0   0  0  0
  87  2  0   0   0   0  0  0
  88  0 43   0   0   0  0  0
  89  2  0   0   0   0  0  0
  90  0 44   0   0   0  0  0
  91  2  0   0   0   0  0  0
  92  0 45   0   0   0  0  0
  93  2  0   0   0   0  0  0
  94  0 46   0   0   0  0  0
  95  2  0   0   0   0  0  0
  96  0 47   0   0   0  0  0
  97  2  0   0   0   0  0  0
  98  0 48   0   0   0  0  0
  99  2  0   0   0   0  0  0
 100  0 49   0   0   0  0  0
 101  2  0   0   0   0  0  0
 102  0 50   0   0   0  0  0
 103  2  0   0   0   0  0  0
 104  0 51   0   0   0  0  0
 105  2  0   0   0   0  0  0
 106  0 52   0   0   0  0  0
 107  2  0   0   0   0  0  0
 108  0 53   0   0   0  0  0
 109  2  0   0   0   0  0  0
 110  0 54   0   0   0  0  0
 111  2  0   0   0   0  0  0
 112  0 55   0   0   0  0  0
 113  2  0   0   0   0  0  0
 114  0 56   0   0   0  0  0
 115  2  0   0   0   0  0  0
 116  0 57   0   0   0  0  0
 117  2  0   0   0   0  0  0
 118  0 58   0   0   0  0  0
 119  2  0   0   0   0  0  0
 120  0 59   0   0   0  0  0
 121  2  0   0   0   0  0  0
 122  0 60   0   0   0  0  0
 123  2  0   0   0   0  0  0
 124  0 61   0   0   0  0  0
 125  2  0   0   0   0  0  0
 126  0 62   0   0   0  0  0
 127  2  0   0   0   0  0  0
 128  0 63   0   0   0  0  0
 129  2  0   0   0   0  0  0
 130  0 64   0   0   0  0  0
 131  2  0   0   0   0  0  0
 132  0 65   0   0   0  0  0
 133  2  0   0   0   0  0  0
 134  0 66   0   0   0  0  0
 135  2  0   0   0   0  0  0
 136  0 67   0   0   0  0  0
 137  2  0   0   0   0  0  0
 138  0 68   0   0   0  0  0
 139  2  0   0   0   0  0  0
 140  0 69   0   0   0  0  0
 141  2  0   0   0   0  0  0
 142  0 70   0   0   0  0  0
 143  2  0   0   0   0  0  0
 144  0 71   0   0   0  0  0
 145  2  0   0   0   0  0  0
 146  0 72   0   0   0  0  0
 147  2  0   0   0   0  0  0
 148  0 73   0   0   0  0  0
 149  2  0   0   0   0  0  0
 150  0 74   0   0   0  0  0
 151  2  0   0   0   0  0  0
 152  0 75   0   0   0  0  0
 153  2  0   0   0   0  0  0
 154  0 76   0   0   0  0  0
 155  0  0   1   1   1  0  0
 156  0  0   0   0   0  1  0
 157  1  0   0   0   0  0  0
 158  0 77   0   0   0  0  0
 159  2  0   0   0   0  0  0
 160  0 78   0   0   0  0  0
 161  2  0   0   0   0  0  0
 162  0 79   0   0   0  0  0
 163  2  0   0   0   0  0  0
 164  0 80   0   0   0  0  0
 165  2  0   0   0   0  0  0
 166  0 81   0   0   0  0  0
 167  2  0   0   0   0  0  0
 168  0 82   0   0   0  0  0
 169  2  0   0   0   0  0  0
 170  0 83   0   0   0  0  0
 171  2  0   0   0   0  0  0
 172  0 84   0   0   0  0  0
 173  2  0   0   0   0  0  0
 174  0 85   0   0   0  0  0
 175  2  0   0   0   0  0  0
 176  0 86   0   0   0  0  0
 177  2  0   0   0   0  0  0
 178  0 87   0   0   0  0  0
 179  2  0   0   0   0  0  0
 180  0 88   0   0   0  0  0
 181  2  0   0   0   0  0  0
 182  0 89   0   0   0  0  0
 183  2  0   0   0   0  0  0
 184  0 90   0   0   0  0  0
 185  2  0   0   0   0  0  0
 186  0 91   0   0   0  0  0
 187  2  0   0   0   0  0  0
 188  0 92   0   0   0  0  0
 189  2  0   0   0   0  0  0
 190  0 93   0   0   0  0  0
 191  2  0   0   0   0  0  0
 192  0 94   0   0   0  0  0
 193  2  0   0   0   0  0  0
 194  0 95   0   0   0  0  0
 195  2  0   0   0   0  0  0
 196  0 96   0   0   0  0  0
 197  2  0   0   0   0  0  0
 198  0 97   0   0   0  0  0
 199  2  0   0   0   0  0  0
 200  0 98   0   0   0  0  0
 201  2  0   0   0   0  0  0
 202  0 99   0   0   0  0  0
 203  2  0   0   0   0  0  0
 204  0 100   0   0   0  0  0
 205  2  0   0   0   0  0  0
 206  0 101   0   0   0  0  0
 207  2  0   0   0   0  0  0
 208  0 102   0   0   0  0  0
 209  2  0   0   0   0  0  0
 210  0 103   0   0   0  0  0
 211  2  0   0   0   0  0  0
 212  0 104   0   0   0  0  0
 213  2  0   0   0   0  0  0
 214  0 105   0   0   0  0  0
 215  2  0   0   0   0  0  0
 216  0 106   0   0   0  0  0
 217  2  0   0   0   0  0  0
 218  0 107   0   0   0  0  0
 219  2  0   0   0   0  0  0
 220  0 108   0   0   0  0  0
 221  2  0   0   0   0  0  0
 222  0 109   0   0   0  0  0
 223  2  0   0   0   0  0  0
 224  0 110   0   0   0  0  0
 225  2  0   0   0   0  0  0
 226  0 111   0   0   0  0  0
 227  2  0   0   0   0  0  0
 228  0 112   0   0   0  0  0
 229  2  0   0   0   0  0  0
 230  0 113   0   0   0  0  0
 231  2  0   0   0   0  0  0
 232  0 114   0   0   0  0  0
 233  0  0   1   1   1  0  0
 234  0  0   0   0   0  1  0
 235  1  0   0   0   0  0  0
 236  0 115   0   0   0  0  0
 237  2  0   0   0   0  0  0
 238  0 116   0   0   0  0  0
 239  2  0   0   0   0  0  0
 240  0 117   0   0   0  0  0
 241  2  0   0   0   0  0  0
 242  0 118   0   0   0  0  0
 243  2  0   0   0   0  0  0
 244  0 119   0   0   0  0  0
 245  2  0   0   0   0  0  0
 246  0 120   0   0   0  0  0
 247  2  0   0   0   0  0  0
 248  0 121   0   0   0  0  0
 249  2  0   0   0   0  0  0
 250  0 122   0   0   0  0  0
 251  2  0   0   0   0  0  0
 252  0 123   0   0   0  0  0
 253  2  0   0   0   0  0  0
 254  0 124   0   0   0  0  0
 255  2  0   0   0   0  0  0
 256  0 125   0   0   0  0  0
 257  2  0   0   0   0  0  0
 258  0 126   0   0   0  0  0
 259  2  0   0   0   0  0  0
 260  0 127   0   0   0  0  0
 261  2  0   0   0   0  0  0
 262  0 128   0   0   0  0  0
 263  2  0   0   0   0  0  0
 264  0 129   0   0   0  0  0
 265  2  0   0   0   0  0  0
 266  0 130   0   0   0  0  0
 267  2  0   0   0   0  0  0
 268  0 131   0   0   0  0  0
 269  2  0   0   0   0  0  0
 270  0 132   0   0   0  0  0
 271  2  0   0   0   0  0  0
 272  0 133   0   0   0  0  0
 273  2  0   0   0   0  0  0
 274  0 134   0   0   0  0  0
 275  2  0   0   0   0  0  0
 276  0 135   0   0   0  0  0
 277  2  0   0   0   0  0  0
 278  0 136   0   0   0  0  0
 279  2  0   0   0   0  0  0
 280  0 137   0   0   0  0  0
 281  2  0   0   0   0  0  0
 282  0 138   0   0   0  0  0
 283  2  0   0   0   0  0  0
 284  0 139   0   0   0  0  0
 285  2  0   0   0   0  0  0
 286  0 140   0   0   0  0  0
 287  2  0   0   0   0  0  0
 288  0 141   0   0   0  0  0
 289  2  0   0   0   0  0  0
 290  0 142   0   0   0  0  0
 291  2  0   0   0   0  0  0
 292  0 143   0   0   0  0  0
 293  2  0   0   0   0  0  0
 294  0 144   0   0   0  0  0
 295  2  0   0   0   0  0  0
 296  0 145   0   0   0  0  0
 297  2  0   0   0   0  0  0
 298  0 146   0   0   0  0  0
 299  2  0   0   0   0  0  0
 300  0 147   0   0   0  0  0
 301  2  0   0   0   0  0  0
 302  0 148   0   0   0  0  0
 303  2  0   0   0   0  0  0
 304  0 149   0   0   0  0  0
 305  2  0   0   0   0  0  0
 306  0 150   0   0   0  0  0
 307  2  0   0   0   0  0  0
 308  0 151   0   0   0  0  0
[RF]
1      21.7991 1 2 100 -199258 0
2      21.7991 1 2 100 -199258 1.53812
3      21.7991 1 2 100 -199258 3.07625
4      21.7991 1 2 100 -199258 4.61437
5      21.7991 1 2 100 -199258 6.1525
6      21.7991 1 2 100 -199258 1.40743
7      21.7991 1 2 100 -199258 2.94556
8      21.7991 1 2 100 -199258 4.48368
9      21.7991 1 2 100 -199258 6.0218
10      21.7991 1 2 100 -199258 1.27674
11      21.7991 1 2 100 -199258 2.81487
12      21.7991 1 2 100 -199258 4.35299
13      21.7991 1 2 100 -199258 5.89111
14      21.7991 1 2 100 -199258 1.14605
15      21.7991 1 2 100 -199258 2.68418
16      21.7991 1 2 100 -199258 4.2223
17      21.7991 1 2 100 -199258 5.76042
18      21.7991 1 2 100 -199258 1.01536
19      21.7991 1 2 100 -199258 2.55349
20      21.7991 1 2 100 -199258 4.09161
21      21.7991 1 2 100 -199258 5.62973
22      21.7991 1 2 100 -199258 0.884672
23      21.7991 1 2 100 -199258 2.4228
24      21.7991 1 2 100 -199258 3.96092
25      21.7991 1 2 100 -199258 5.49904
26      21.7991 1 2 100 -199258 0.753982
27      21.7991 1 2 100 -199258 2.29211
28      21.7991 1 2 100 -199258 3.83023
29      21.7991 1 2 100 -199258 5.36835
30      21.7991 1 2 100 -199258 0.623292
31      21.7991 1 2 100 -199258 2.16142
32      21.7991 1 2 100 -199258 3.69954
33      21.7991 1 2 100 -199258 5.23766
34      21.7991 1 2 100 -199258 0.492602
35      21.7991 1 2 100 -199258 2.03073
36      21.7991 1 2 100 -199258 3.56885
37      21.7991 1 2 100 -199258 5.10697
38      21.7991 1 2 100 -199258 0.361911
39      21.7991 1 2 100 -766.375 0
40      21.7991 1 2 100 -766.375 2.27753
41      21.7991 1 2 100 -766.375 4.55506
42      21.7991 1 2 100 -766.375 0.549402
43      21.7991 1 2 100 -766.375 2.82693
44      21.7991 1 2 100 -766.375 5.10446
45      21.7991 1 2 100 -766.375 1.0988
46      21.7991 1 2 100 -766.375 3.37633
47      21.7991 1 2 100 -766.375 5.65386
48      21.7991 1 2 100 -766.375 1.64821
49      21.7991 1 2 100 -766.375 3.92573
50      21.7991 1 2 100 -766.375 6.20326
51      21.7991 1 2 100 -766.375 2.19761
52      21.7991 1 2 100 -766.375 4.47514
53      21.7991 1 2 100 -766.375 0.46948
54      21.7991 1 2 100 -766.375 2.74701
55      21.7991 1 2 100 -766.375 5.02454
56      21.7991 1 2 100 -766.375 1.01888
57      21.7991 1 2 100 -766.375 3.29641
58      21.7991 1 2 100 -766.375 5.57394
59      21.7991 1 2 100 -766.375 1.56828
60      21.7991 1 2 100 -766.375 3.84581
61      21.7991 1 2 100 -766.375 6.12334
62      21.7991 1 2 100 -766.375 2.11768
63      21.7991 1 2 100 -766.375 4.39521
64      21.7991 1 2 100 -766.375 0.389557
65      21.7991 1 2 100 -766.375 2.66709
66      21.7991 1 2 100 -766.375 4.94462
67      21.7991 1 2 100 -766.375 0.938959
68      21.7991 1 2 100 -766.375 3.21649
69      21.7991 1 2 100 -766.375 5.49402
70      21.7991 1 2 100 -766.375 1.48836
71      21.7991 1 2 100 -766.375 3.76589
72      21.7991 1 2 100 -766.375 6.04342
73      21.7991 1 2 100 -766.375 2.03776
74      21.7991 1 2 100 -766.375 4.31529
75      21.7991 1 2 100 -766.375 0.309635
76      21.7991 1 2 100 -766.375 2.58716
77      21.7991 1 2 100 -753.602 0
78      21.7991 1 2 100 -753.602 4.01981
79      21.7991 1 2 100 -753.602 1.75643
80      21.7991 1 2 100 -753.602 5.77623
81      21.7991 1 2 100 -753.602 3.51285
82      21.7991 1 2 100 -753.602 1.24947
83      21.7991 1 2 100 -753.602 5.26928
84      21.7991 1 2 100 -753.602 3.0059
85      21.7991 1 2 100 -753.602 0.742522
86      21.7991 1 2 100 -753.602 4.76233
87      21.7991 1 2 100 -753.602 2.49895
88      21.7991 1 2 100 -753.602 0.235569
89      21.7991 1 2 100 -753.602 4.25538
90      21.7991 1 2 100 -753.602 1.992
91      21.7991 1 2 100 -753.602 6.0118
92      21.7991 1 2 100 -753.602 3.74842
93      21.7991 1 2 100 -753.602 1.48504
94      21.7991 1 2 100 -753.602 5.50485
95      21.7991 1 2 100 -753.602 3.24147
96      21.7991 1 2 100 -753.602 0.978091
97      21.7991 1 2 100 -753.602 4.9979
98      21.7991 1 2 100 -753.602 2.73452
99      21.7991 1 2 100 -753.602 0.471138
100      21.7991 1 2 100 -753.602 4.49094
101      21.7991 1 2 100 -753.602 2.22757
102      21.7991 1 2 100 -753.602 6.24737
103      21.7991 1 2 100 -753.602 3.98399
104      21.7991 1 2 100 -753.602 1.72061
105      21.7991 1 2 100 -753.602 5.74042
106      21.7991 1 2 100 -753.602 3.47704
107      21.7991 1 2 100 -753.602 1.21366
108      21.7991 1 2 100 -753.602 5.23347
109      21.7991 1 2 100 -753.602 2.97009
110      21.7991 1 2 100 -753.602 0.706708
111      21.7991 1 2 100 -753.602 4.72651
112      21.7991 1 2 100 -753.602 2.46313
113      21.7991 1 2 100 -753.602 0.199755
114      21.7991 1 2 100 -753.602 4.21956
115      21.7991 1 2 100 -740.829 0
116      21.7991 1 2 100 -740.829 5.76208
117      21.7991 1 2 100 -740.829 5.24098
118      21.7991 1 2 100 -740.829 4.71988
119      21.7991 1 2 100 -740.829 4.19878
120      21.7991 1 2 100 -740.829 3.67767
121      21.7991 1 2 100 -740.829 3.15657
122      21.7991 1 2 100 -740.829 2.63547
123      21.7991 1 2 100 -740.829 2.11437
124      21.7991 1 2 100 -740.829 1.59326
125      21.7991 1 2 100 -740.829 1.07216
126      21.7991 1 2 100 -740.829 0.55106
127      21.7991 1 2 100 -740.829 0.0299582
128      21.7991 1 2 100 -740.829 5.79204
129      21.7991 1 2 100 -740.829 5.27094
130      21.7991 1 2 100 -740.829 4.74984
131      21.7991 1 2 100 -740.829 4.22873
132      21.7991 1 2 100 -740.829 3.70763
133      21.7991 1 2 100 -740.829 3.18653
134      21.7991 1 2 100 -740.829 2.66543
135      21.7991 1 2 100 -740.829 2.14433
136      21.7991 1 2 100 -740.829 1.62322
137      21.7991 1 2 100 -740.829 1.10212
138      21.7991 1 2 100 -740.829 0.581019
139      21.7991 1 2 100 -740.829 0.0599165
140      21.7991 1 2 100 -740.829 5.822
141      21.7991 1 2 100 -740.829 5.3009
142      21.7991 1 2 100 -740.829 4.77979
143      21.7991 1 2 100 -740.829 4.25869
144      21.7991 1 2 100 -740.829 3.73759
145      21.7991 1 2 100 -740.829 3.21649
146      21.7991 1 2 100 -740.829 2.69539
147      21.7991 1 2 100 -740.829 2.17428
148      21.7991 1 2 100 -740.829 1.65318
149      21.7991 1 2 100 -740.829 1.13208
150      21.7991 1 2 100 -740.829 0.610977
151      21.7991 1 2 100 -740.829 0.0898747
152      21.7991 1 2 100 -740.829 5.85196
153      21.7991 1 2 100 -728.056 0
154      21.7991 1 2 100 -728.056 1.22117
155      21.7991 1 2 100 -728.056 2.44235
156      21.7991 1 2 100 -728.056 3.66352
157      21.7991 1 2 100 -728.056 4.8847
158      21.7991 1 2 100 -728.056 6.10587
159      21.7991 1 2 100 -728.056 1.04386
160      21.7991 1 2 100 -728.056 2.26504
161      21.7991 1 2 100 -728.056 3.48621
162      21.7991 1 2 100 -728.056 4.70739
163      21.7991 1 2 100 -728.056 5.92856
164      21.7991 1 2 100 -728.056 0.866552
165      21.7991 1 2 100 -728.056 2.08773
166      21.7991 1 2 100 -728.056 3.3089
167      21.7991 1 2 100 -728.056 4.53008
168      21.7991 1 2 100 -728.056 5.75125
169      21.7991 1 2 100 -728.056 0.68924
170      21.7991 1 2 100 -728.056 1.91042
171      21.7991 1 2 100 -728.056 3.13159
172      21.7991 1 2 100 -728.056 4.35276
173      21.7991 1 2 100 -728.056 5.57394
174      21.7991 1 2 100 -728.056 0.511929
175      21.7991 1 2 100 -728.056 1.7331
176      21.7991 1 2 100 -728.056 2.95428
177      21.7991 1 2 100 -728.056 4.17545
178      21.7991 1 2 100 -728.056 5.39663
179      21.7991 1 2 100 -728.056 0.334617
180      21.7991 1 2 100 -728.056 1.55579
181      21.7991 1 2 100 -728.056 2.77697
182      21.7991 1 2 100 -728.056 3.99814
183      21.7991 1 2 100 -728.056 5.21932
184      21.7991 1 2 100 -728.056 0.157306
185      21.7991 1 2 100 -728.056 1.37848
186      21.7991 1 2 100 -728.056 2.59966
187      21.7991 1 2 100 -728.056 3.82083
188      21.7991 1 2 100 -728.056 5.042
189      21.7991 1 2 100 -728.056 6.26318
190      21.7991 1 2 100 -728.056 1.20117
191      21.7991 1 2 100 -715.284 0
192      21.7991 1 2 100 -715.284 2.96345
193      21.7991 1 2 100 -715.284 5.9269
194      21.7991 1 2 100 -715.284 2.60717
195      21.7991 1 2 100 -715.284 5.57062
196      21.7991 1 2 100 -715.284 2.25089
197      21.7991 1 2 100 -715.284 5.21434
198      21.7991 1 2 100 -715.284 1.89461
199      21.7991 1 2 100 -715.284 4.85806
200      21.7991 1 2 100 -715.284 1.53832
201      21.7991 1 2 100 -715.284 4.50178
202      21.7991 1 2 100 -715.284 1.18204
203      21.7991 1 2 100 -715.284 4.14549
204      21.7991 1 2 100 -715.284 0.825761
205      21.7991 1 2 100 -715.284 3.78921
206      21.7991 1 2 100 -715.284 0.46948
207      21.7991 1 2 100 -715.284 3.43293
208      21.7991 1 2 100 -715.284 0.113198
209      21.7991 1 2 100 -715.284 3.07665
210      21.7991 1 2 100 -715.284 6.0401
211      21.7991 1 2 100 -715.284 2.72037
212      21.7991 1 2 100 -715.284 5.68382
213      21.7991 1 2 100 -715.284 2.36409
214      21.7991 1 2 100 -715.284 5.32754
215      21.7991 1 2 100 -715.284 2.0078
216      21.7991 1 2 100 -715.284 4.97126
217      21.7991 1 2 100 -715.284 1.65152
218      21.7991 1 2 100 -715.284 4.61497
219      21.7991 1 2 100 -715.284 1.29524
220      21.7991 1 2 100 -715.284 4.25869
221      21.7991 1 2 100 -715.284 0.938959
222      21.7991 1 2 100 -715.284 3.90241
223      21.7991 1 2 100 -715.284 0.582677
224      21.7991 1 2 100 -715.284 3.54613
225      21.7991 1 2 100 -715.284 0.226396
226      21.7991 1 2 100 -715.284 3.18985
227      21.7991 1 2 100 -715.284 6.1533
228      21.7991 1 2 100 -715.284 2.83357
229      21.7991 1 2 100 -702.511 0
230      21.7991 1 2 100 -702.511 4.70573
231      21.7991 1 2 100 -702.511 3.12827
232      21.7991 1 2 100 -702.511 1.55082
233      21.7991 1 2 100 -702.511 6.25654
234      21.7991 1 2 100 -702.511 4.67909
235      21.7991 1 2 100 -702.511 3.10163
236      21.7991 1 2 100 -702.511 1.52418
237      21.7991 1 2 100 -702.511 6.2299
238      21.7991 1 2 100 -702.511 4.65245
239      21.7991 1 2 100 -702.511 3.07499
240      21.7991 1 2 100 -702.511 1.49753
241      21.7991 1 2 100 -702.511 6.20326
242      21.7991 1 2 100 -702.511 4.62581
243      21.7991 1 2 100 -702.511 3.04835
244      21.7991 1 2 100 -702.511 1.47089
245      21.7991 1 2 100 -702.511 6.17662
246      21.7991 1 2 100 -702.511 4.59917
247      21.7991 1 2 100 -702.511 3.02171
248      21.7991 1 2 100 -702.511 1.44425
249      21.7991 1 2 100 -702.511 6.14998
250      21.7991 1 2 100 -702.511 4.57253
251      21.7991 1 2 100 -702.511 2.99507
252      21.7991 1 2 100 -702.511 1.41761
253      21.7991 1 2 100 -702.511 6.12334
254      21.7991 1 2 100 -702.511 4.54588
255      21.7991 1 2 100 -702.511 2.96843
256      21.7991 1 2 100 -702.511 1.39097
257      21.7991 1 2 100 -702.511 6.0967
258      21.7991 1 2 100 -702.511 4.51924
259      21.7991 1 2 100 -702.511 2.94179
260      21.7991 1 2 100 -702.511 1.36433
261      21.7991 1 2 100 -702.511 6.07006
262      21.7991 1 2 100 -702.511 4.4926
263      21.7991 1 2 100 -702.511 2.91515
264      21.7991 1 2 100 -702.511 1.33769
265      21.7991 1 2 100 -702.511 6.04342
266      21.7991 1 2 100 -702.511 4.46596
267      21.7991 1 2 100 -689.738 0
268      21.7991 1 2 100 -689.738 0.164821
269      21.7991 1 2 100 -689.738 0.329641
270      21.7991 1 2 100 -689.738 0.494462
271      21.7991 1 2 100 -689.738 0.659282
272      21.7991 1 2 100 -689.738 0.824103
273      21.7991 1 2 100 -689.738 0.988923
274      21.7991 1 2 100 -689.738 1.15374
275      21.7991 1 2 100 -689.738 1.31856
276      21.7991 1 2 100 -689.738 1.48338
277      21.7991 1 2 100 -689.738 1.64821
278      21.7991 1 2 100 -689.738 1.81303
279      21.7991 1 2 100 -689.738 1.97785
280      21.7991 1 2 100 -689.738 2.14267
281      21.7991 1 2 100 -689.738 2.30749
282      21.7991 1 2 100 -689.738 2.47231
283      21.7991 1 2 100 -689.738 2.63713
284      21.7991 1 2 100 -689.738 2.80195
285      21.7991 1 2 100 -689.738 2.96677
286      21.7991 1 2 100 -689.738 3.13159
287      21.7991 1 2 100 -689.738 3.29641
288      21.7991 1 2 100 -689.738 3.46123
289      21.7991 1 2 100 -689.738 3.62605
290      21.7991 1 2 100 -689.738 3.79087
291      21.7991 1 2 100 -689.738 3.95569
292      21.7991 1 2 100 -689.738 4.12051
293      21.7991 1 2 100 -689.738 4.28533
294      21.7991 1 2 100 -689.738 4.45015
295      21.7991 1 2 100 -689.738 4.61497
296      21.7991 1 2 100 -689.738 4.77979
297      21.7991 1 2 100 -689.738 4.94462
298      21.7991 1 2 100 -689.738 5.10944
299      21.7991 1 2 100 -689.738 5.27426
300      21.7991 1 2 100 -689.738 5.43908
301      21.7991 1 2 100 -689.738 5.6039
302      21.7991 1 2 100 -689.738 5.76872
303      21.7991 1 2 100 -689.738 5.93354
304      21.7991 1 2 100 -689.738 6.09836
305      21.7991 1 2 100 -676.965 0
306      21.7991 1 2 100 -676.965 1.9071
307      21.7991 1 2 100 -676.965 3.8142
308      21.7991 1 2 100 -676.965 5.72129
309      21.7991 1 2 100 -676.965 1.3452
310      21.7991 1 2 100 -676.965 3.2523
311      21.7991 1 2 100 -676.965 5.1594
312      21.7991 1 2 100 -676.965 0.783312
313      21.7991 1 2 100 -676.965 2.69041
314      21.7991 1 2 100 -676.965 4.59751
315      21.7991 1 2 100 -676.965 0.221419
316      21.7991 1 2 100 -676.965 2.12852
317      21.7991 1 2 100 -676.965 4.03561
318      21.7991 1 2 100 -676.965 5.94271
319      21.7991 1 2 100 -676.965 1.56662
320      21.7991 1 2 100 -676.965 3.47372
321      21.7991 1 2 100 -676.965 5.38082
322      21.7991 1 2 100 -676.965 1.00473
323      21.7991 1 2 100 -676.965 2.91183
324      21.7991 1 2 100 -676.965 4.81893
325      21.7991 1 2 100 -676.965 0.442839
326      21.7991 1 2 100 -676.965 2.34994
327      21.7991 1 2 100 -676.965 4.25703
328      21.7991 1 2 100 -676.965 6.16413
329      21.7991 1 2 100 -676.965 1.78804
330      21.7991 1 2 100 -676.965 3.69514
331      21.7991 1 2 100 -676.965 5.60224
332      21.7991 1 2 100 -676.965 1.22615
333      21.7991 1 2 100 -676.965 3.13325
334      21.7991 1 2 100 -676.965 5.04035
335      21.7991 1 2 100 -676.965 0.664258
336      21.7991 1 2 100 -676.965 2.57136
337      21.7991 1 2 100 -676.965 4.47845
338      21.7991 1 2 100 -676.965 0.102366
339      21.7991 1 2 100 -676.965 2.00946
340      21.7991 1 2 100 -676.965 3.91656
341      21.7991 1 2 100 -676.965 5.82366
342      21.7991 1 2 100 -676.965 1.44757
343      21.7991 1 2 100 -664.192 0
344      21.7991 1 2 100 -664.192 3.64937
345      21.7991 1 2 100 -664.192 1.01556
346      21.7991 1 2 100 -664.192 4.66494
347      21.7991 1 2 100 -664.192 2.03113
348      21.7991 1 2 100 -664.192 5.6805
349      21.7991 1 2 100 -664.192 3.04669
350      21.7991 1 2 100 -664.192 0.412881
351      21.7991 1 2 100 -664.192 4.06226
352      21.7991 1 2 100 -664.192 1.42844
353      21.7991 1 2 100 -664.192 5.07782
354      21.7991 1 2 100 -664.192 2.44401
355      21.7991 1 2 100 -664.192 6.09338
356      21.7991 1 2 100 -664.192 3.45957
357      21.7991 1 2 100 -664.192 0.825761
358      21.7991 1 2 100 -664.192 4.47514
359      21.7991 1 2 100 -664.192 1.84133
360      21.7991 1 2 100 -664.192 5.4907
361      21.7991 1 2 100 -664.192 2.85689
362      21.7991 1 2 100 -664.192 0.223078
363      21.7991 1 2 100 -664.192 3.87245
364      21.7991 1 2 100 -664.192 1.23864
365      21.7991 1 2 100 -664.192 4.88802
366      21.7991 1 2 100 -664.192 2.25421
367      21.7991 1 2 100 -664.192 5.90358
368      21.7991 1 2 100 -664.192 3.26977
369      21.7991 1 2 100 -664.192 0.635959
370      21.7991 1 2 100 -664.192 4.28533
371      21.7991 1 2 100 -664.192 1.65152
372      21.7991 1 2 100 -664.192 5.3009
373      21.7991 1 2 100 -664.192 2.66709
374      21.7991 1 2 100 -664.192 0.0332757
375      21.7991 1 2 100 -664.192 3.68265
376      21.7991 1 2 100 -664.192 1.04884
377      21.7991 1 2 100 -664.192 4.69821
378      21.7991 1 2 100 -664.192 2.0644
379      21.7991 1 2 100 -664.192 5.71378
380      21.7991 1 2 100 -664.192 3.07997
381      21.7991 1 2 100 -651.419 0
382      21.7991 1 2 100 -651.419 5.39165
383      21.7991 1 2 100 -651.419 4.50012
384      21.7991 1 2 100 -651.419 3.60858
385      21.7991 1 2 100 -651.419 2.71705
386      21.7991 1 2 100 -651.419 1.82552
387      21.7991 1 2 100 -651.419 0.933983
388      21.7991 1 2 100 -651.419 0.0424492
389      21.7991 1 2 100 -651.419 5.4341
390      21.7991 1 2 100 -651.419 4.54257
391      21.7991 1 2 100 -651.419 3.65103
392      21.7991 1 2 100 -651.419 2.7595
393      21.7991 1 2 100 -651.419 1.86797
394      21.7991 1 2 100 -651.419 0.976432
395      21.7991 1 2 100 -651.419 0.0848984
396      21.7991 1 2 100 -651.419 5.47655
397      21.7991 1 2 100 -651.419 4.58502
398      21.7991 1 2 100 -651.419 3.69348
399      21.7991 1 2 100 -651.419 2.80195
400      21.7991 1 2 100 -651.419 1.91042
401      21.7991 1 2 100 -651.419 1.01888
402      21.7991 1 2 100 -651.419 0.127348
403      21.7991 1 2 100 -651.419 5.519
404      21.7991 1 2 100 -651.419 4.62747
405      21.7991 1 2 100 -651.419 3.73593
406      21.7991 1 2 100 -651.419 2.8444
407      21.7991 1 2 100 -651.419 1.95286
408      21.7991 1 2 100 -651.419 1.06133
409      21.7991 1 2 100 -651.419 0.169797
410      21.7991 1 2 100 -651.419 5.56145
411      21.7991 1 2 100 -651.419 4.66991
412      21.7991 1 2 100 -651.419 3.77838
413      21.7991 1 2 100 -651.419 2.88685
414      21.7991 1 2 100 -651.419 1.99531
415      21.7991 1 2 100 -651.419 1.10378
416      21.7991 1 2 100 -651.419 0.212246
417      21.7991 1 2 100 -651.419 5.6039
418      21.7991 1 2 100 -651.419 4.71236
419      21.7991 1 2 100 -638.646 0
420      21.7991 1 2 100 -638.646 0.850743
421      21.7991 1 2 100 -638.646 1.70149
422      21.7991 1 2 100 -638.646 2.55223
423      21.7991 1 2 100 -638.646 3.40297
424      21.7991 1 2 100 -638.646 4.25372
425      21.7991 1 2 100 -638.646 5.10446
426      21.7991 1 2 100 -638.646 5.9552
427      21.7991 1 2 100 -638.646 0.522761
428      21.7991 1 2 100 -638.646 1.3735
429      21.7991 1 2 100 -638.646 2.22425
430      21.7991 1 2 100 -638.646 3.07499
431      21.7991 1 2 100 -638.646 3.92573
432      21.7991 1 2 100 -638.646 4.77648
433      21.7991 1 2 100 -638.646 5.62722
434      21.7991 1 2 100 -638.646 0.194779
435      21.7991 1 2 100 -638.646 1.04552
436      21.7991 1 2 100 -638.646 1.89627
437      21.7991 1 2 100 -638.646 2.74701
438      21.7991 1 2 100 -638.646 3.59775
439      21.7991 1 2 100 -638.646 4.4485
440      21.7991 1 2 100 -638.646 5.29924
441      21.7991 1 2 100 -638.646 6.14998
442      21.7991 1 2 100 -638.646 0.71754
443      21.7991 1 2 100 -638.646 1.56828
444      21.7991 1 2 100 -638.646 2.41903
445      21.7991 1 2 100 -638.646 3.26977
446      21.7991 1 2 100 -638.646 4.12051
447      21.7991 1 2 100 -638.646 4.97126
448      21.7991 1 2 100 -638.646 5.822
449      21.7991 1 2 100 -638.646 0.389557
450      21.7991 1 2 100 -638.646 1.2403
451      21.7991 1 2 100 -638.646 2.09104
452      21.7991 1 2 100 -638.646 2.94179
453      21.7991 1 2 100 -638.646 3.79253
454      21.7991 1 2 100 -638.646 4.64327
455      21.7991 1 2 100 -638.646 5.49402
456      21.7991 1 2 100 -638.646 0.0615752
457      21.7991 1 2 100 -625.873 0
458      21.7991 1 2 100 -625.873 2.59302
459      21.7991 1 2 100 -625.873 5.18604
460      21.7991 1 2 100 -625.873 1.49588
461      21.7991 1 2 100 -625.873 4.0889
462      21.7991 1 2 100 -625.873 0.398731
463      21.7991 1 2 100 -625.873 2.99175
464      21.7991 1 2 100 -625.873 5.58477
465      21.7991 1 2 100 -625.873 1.89461
466      21.7991 1 2 100 -625.873 4.48763
467      21.7991 1 2 100 -625.873 0.797462
468      21.7991 1 2 100 -625.873 3.39048
469      21.7991 1 2 100 -625.873 5.9835
470      21.7991 1 2 100 -625.873 2.29334
471      21.7991 1 2 100 -625.873 4.88636
472      21.7991 1 2 100 -625.873 1.19619
473      21.7991 1 2 100 -625.873 3.78921
474      21.7991 1 2 100 -625.873 0.0990481
475      21.7991 1 2 100 -625.873 2.69207
476      21.7991 1 2 100 -625.873 5.28509
477      21.7991 1 2 100 -625.873 1.59492
478      21.7991 1 2 100 -625.873 4.18794
479      21.7991 1 2 100 -625.873 0.497779
480      21.7991 1 2 100 -625.873 3.0908
