# Pulseq sequence file
# Created by MATLAB mr toolbox

# Created for Pulseq-CEST
# https://pulseq-cest.github.io/
# Created by: Kai Herz
# Created at: 03-Mar-2023 07:30:51

[VERSION]
major 1
minor 3
revision 1

[DEFINITIONS]
B0 7 
B1cwae_pure 4.99996875 
DCsat 0.987654321 
M0_offset -1560 
Trec 5 
Trec_M0 5 
Tsat 4 
n_pulses 49 
num_meas 2 
offsets_ppm -1560 20 
seq_id_string APTw_7T_001_0pt2uT_Bloch_alpha_PTR 
td 0.001 
tp 0.08 

# Format of blocks:
#  #  D RF  GX  GY  GZ ADC EXT
[BLOCKS]
  1  1  0   0   0   0  0  0
  2  0  1   0   0   0  0  0
  3  2  0   0   0   0  0  0
  4  0  2   0   0   0  0  0
  5  2  0   0   0   0  0  0
  6  0  3   0   0   0  0  0
  7  2  0   0   0   0  0  0
  8  0  4   0   0   0  0  0
  9  2  0   0   0   0  0  0
 10  0  5   0   0   0  0  0
 11  2  0   0   0   0  0  0
 12  0  6   0   0   0  0  0
 13  2  0   0   0   0  0  0
 14  0  7   0   0   0  0  0
 15  2  0   0   0   0  0  0
 16  0  8   0   0   0  0  0
 17  2  0   0   0   0  0  0
 18  0  9   0   0   0  0  0
 19  2  0   0   0   0  0  0
 20  0 10   0   0   0  0  0
 21  2  0   0   0   0  0  0
 22  0 11   0   0   0  0  0
 23  2  0   0   0   0  0  0
 24  0 12   0   0   0  0  0
 25  2  0   0   0   0  0  0
 26  0 13   0   0   0  0  0
 27  2  0   0   0   0  0  0
 28  0 14   0   0   0  0  0
 29  2  0   0   0   0  0  0
 30  0 15   0   0   0  0  0
 31  2  0   0   0   0  0  0
 32  0 16   0   0   0  0  0
 33  2  0   0   0   0  0  0
 34  0 17   0   0   0  0  0
 35  2  0   0   0   0  0  0
 36  0 18   0   0   0  0  0
 37  2  0   0   0   0  0  0
 38  0 19   0   0   0  0  0
 39  2  0   0   0   0  0  0
 40  0 20   0   0   0  0  0
 41  2  0   0   0   0  0  0
 42  0 21   0   0   0  0  0
 43  2  0   0   0   0  0  0
 44  0 22   0   0   0  0  0
 45  2  0   0   0   0  0  0
 46  0 23   0   0   0  0  0
 47  2  0   0   0   0  0  0
 48  0 24   0   0   0  0  0
 49  2  0   0   0   0  0  0
 50  0 25   0   0   0  0  0
 51  2  0   0   0   0  0  0
 52  0 26   0   0   0  0  0
 53  2  0   0   0   0  0  0
 54  0 27   0   0   0  0  0
 55  2  0   0   0   0  0  0
 56  0 28   0   0   0  0  0
 57  2  0   0   0   0  0  0
 58  0 29   0   0   0  0  0
 59  2  0   0   0   0  0  0
 60  0 30   0   0   0  0  0
 61  2  0   0   0   0  0  0
 62  0 31   0   0   0  0  0
 63  2  0   0   0   0  0  0
 64  0 32   0   0   0  0  0
 65  2  0   0   0   0  0  0
 66  0 33   0   0   0  0  0
 67  2  0   0   0   0  0  0
 68  0 34   0   0   0  0  0
 69  2  0   0   0   0  0  0
 70  0 35   0   0   0  0  0
 71  2  0   0   0   0  0  0
 72  0 36   0   0   0  0  0
 73  2  0   0   0   0  0  0
 74  0 37   0   0   0  0  0
 75  2  0   0   0   0  0  0
 76  0 38   0   0   0  0  0
 77  2  0   0   0   0  0  0
 78  0 39   0   0   0  0  0
 79  2  0   0   0   0  0  0
 80  0 40   0   0   0  0  0
 81  2  0   0   0   0  0  0
 82  0 41   0   0   0  0  0
 83  2  0   0   0   0  0  0
 84  0 42   0   0   0  0  0
 85  2  0   0   0   0  0  0
 86  0 43   0   0   0  0  0
 87  2  0   0   0   0  0  0
 88  0 44   0   0   0  0  0
 89  2  0   0   0   0  0  0
 90  0 45   0   0   0  0  0
 91  2  0   0   0   0  0  0
 92  0 46   0   0   0  0  0
 93  2  0   0   0   0  0  0
 94  0 47   0   0   0  0  0
 95  2  0   0   0   0  0  0
 96  0 48   0   0   0  0  0
 97  2  0   0   0   0  0  0
 98  0 49   0   0   0  0  0
 99  0  0   0   0   0  1  0
100  1  0   0   0   0  0  0
101  0 50   0   0   0  0  0
102  2  0   0   0   0  0  0
103  0 51   0   0   0  0  0
104  2  0   0   0   0  0  0
105  0 52   0   0   0  0  0
106  2  0   0   0   0  0  0
107  0 53   0   0   0  0  0
108  2  0   0   0   0  0  0
109  0 54   0   0   0  0  0
110  2  0   0   0   0  0  0
111  0 55   0   0   0  0  0
112  2  0   0   0   0  0  0
113  0 56   0   0   0  0  0
114  2  0   0   0   0  0  0
115  0 57   0   0   0  0  0
116  2  0   0   0   0  0  0
117  0 58   0   0   0  0  0
118  2  0   0   0   0  0  0
119  0 59   0   0   0  0  0
120  2  0   0   0   0  0  0
121  0 60   0   0   0  0  0
122  2  0   0   0   0  0  0
123  0 61   0   0   0  0  0
124  2  0   0   0   0  0  0
125  0 62   0   0   0  0  0
126  2  0   0   0   0  0  0
127  0 63   0   0   0  0  0
128  2  0   0   0   0  0  0
129  0 64   0   0   0  0  0
130  2  0   0   0   0  0  0
131  0 65   0   0   0  0  0
132  2  0   0   0   0  0  0
133  0 66   0   0   0  0  0
134  2  0   0   0   0  0  0
135  0 67   0   0   0  0  0
136  2  0   0   0   0  0  0
137  0 68   0   0   0  0  0
138  2  0   0   0   0  0  0
139  0 69   0   0   0  0  0
140  2  0   0   0   0  0  0
141  0 70   0   0   0  0  0
142  2  0   0   0   0  0  0
143  0 71   0   0   0  0  0
144  2  0   0   0   0  0  0
145  0 72   0   0   0  0  0
146  2  0   0   0   0  0  0
147  0 73   0   0   0  0  0
148  2  0   0   0   0  0  0
149  0 74   0   0   0  0  0
150  2  0   0   0   0  0  0
151  0 75   0   0   0  0  0
152  2  0   0   0   0  0  0
153  0 76   0   0   0  0  0
154  2  0   0   0   0  0  0
155  0 77   0   0   0  0  0
156  2  0   0   0   0  0  0
157  0 78   0   0   0  0  0
158  2  0   0   0   0  0  0
159  0 79   0   0   0  0  0
160  2  0   0   0   0  0  0
161  0 80   0   0   0  0  0
162  2  0   0   0   0  0  0
163  0 81   0   0   0  0  0
164  2  0   0   0   0  0  0
165  0 82   0   0   0  0  0
166  2  0   0   0   0  0  0
167  0 83   0   0   0  0  0
168  2  0   0   0   0  0  0
169  0 84   0   0   0  0  0
170  2  0   0   0   0  0  0
171  0 85   0   0   0  0  0
172  2  0   0   0   0  0  0
173  0 86   0   0   0  0  0
174  2  0   0   0   0  0  0
175  0 87   0   0   0  0  0
176  2  0   0   0   0  0  0
177  0 88   0   0   0  0  0
178  2  0   0   0   0  0  0
179  0 89   0   0   0  0  0
180  2  0   0   0   0  0  0
181  0 90   0   0   0  0  0
182  2  0   0   0   0  0  0
183  0 91   0   0   0  0  0
184  2  0   0   0   0  0  0
185  0 92   0   0   0  0  0
186  2  0   0   0   0  0  0
187  0 93   0   0   0  0  0
188  2  0   0   0   0  0  0
189  0 94   0   0   0  0  0
190  2  0   0   0   0  0  0
191  0 95   0   0   0  0  0
192  2  0   0   0   0  0  0
193  0 96   0   0   0  0  0
194  2  0   0   0   0  0  0
195  0 97   0   0   0  0  0
196  2  0   0   0   0  0  0
197  0 98   0   0   0  0  0
198  0  0   0   0   0  1  0

# Format of RF events:
# id amplitude mag_id phase_id delay freq phase
# ..        Hz   ....     ....    us   Hz   rad
[RF]
1      212.882 1 2 100 -464934 0
2      212.882 1 2 100 -464934 1.61453
3      212.882 1 2 100 -464934 3.22905
4      212.882 1 2 100 -464934 4.84358
5      212.882 1 2 100 -464934 0.174924
6      212.882 1 2 100 -464934 1.78945
7      212.882 1 2 100 -464934 3.40398
8      212.882 1 2 100 -464934 5.01851
9      212.882 1 2 100 -464934 0.349848
10      212.882 1 2 100 -464934 1.96438
11      212.882 1 2 100 -464934 3.5789
12      212.882 1 2 100 -464934 5.19343
13      212.882 1 2 100 -464934 0.524772
14      212.882 1 2 100 -464934 2.1393
15      212.882 1 2 100 -464934 3.75383
16      212.882 1 2 100 -464934 5.36835
17      212.882 1 2 100 -464934 0.699696
18      212.882 1 2 100 -464934 2.31422
19      212.882 1 2 100 -464934 3.92875
20      212.882 1 2 100 -464934 5.54328
21      212.882 1 2 100 -464934 0.874619
22      212.882 1 2 100 -464934 2.48915
23      212.882 1 2 100 -464934 4.10367
24      212.882 1 2 100 -464934 5.7182
25      212.882 1 2 100 -464934 1.04954
26      212.882 1 2 100 -464934 2.66407
27      212.882 1 2 100 -464934 4.2786
28      212.882 1 2 100 -464934 5.89313
29      212.882 1 2 100 -464934 1.22447
30      212.882 1 2 100 -464934 2.83899
31      212.882 1 2 100 -464934 4.45352
32      212.882 1 2 100 -464934 6.06805
33      212.882 1 2 100 -464934 1.39939
34      212.882 1 2 100 -464934 3.01392
35      212.882 1 2 100 -464934 4.62845
36      212.882 1 2 100 -464934 6.24297
37      212.882 1 2 100 -464934 1.57431
38      212.882 1 2 100 -464934 3.18884
39      212.882 1 2 100 -464934 4.80337
40      212.882 1 2 100 -464934 0.134711
41      212.882 1 2 100 -464934 1.74924
42      212.882 1 2 100 -464934 3.36377
43      212.882 1 2 100 -464934 4.97829
44      212.882 1 2 100 -464934 0.309635
45      212.882 1 2 100 -464934 1.92416
46      212.882 1 2 100 -464934 3.53869
47      212.882 1 2 100 -464934 5.15322
48      212.882 1 2 100 -464934 0.484559
49      212.882 1 2 100 -464934 2.09909
50      212.882 1 2 100 5960.7 0
51      212.882 1 2 100 5960.7 5.3764
52      212.882 1 2 100 5960.7 4.46961
53      212.882 1 2 100 5960.7 3.56282
54      212.882 1 2 100 5960.7 2.65603
55      212.882 1 2 100 5960.7 1.74924
56      212.882 1 2 100 5960.7 0.842449
57      212.882 1 2 100 5960.7 6.21885
58      212.882 1 2 100 5960.7 5.31206
59      212.882 1 2 100 5960.7 4.40527
60      212.882 1 2 100 5960.7 3.49848
61      212.882 1 2 100 5960.7 2.59169
62      212.882 1 2 100 5960.7 1.6849
63      212.882 1 2 100 5960.7 0.77811
64      212.882 1 2 100 5960.7 6.15451
65      212.882 1 2 100 5960.7 5.24772
66      212.882 1 2 100 5960.7 4.34093
67      212.882 1 2 100 5960.7 3.43414
68      212.882 1 2 100 5960.7 2.52735
69      212.882 1 2 100 5960.7 1.62056
70      212.882 1 2 100 5960.7 0.71377
71      212.882 1 2 100 5960.7 6.09017
72      212.882 1 2 100 5960.7 5.18338
73      212.882 1 2 100 5960.7 4.27659
74      212.882 1 2 100 5960.7 3.3698
75      212.882 1 2 100 5960.7 2.46301
76      212.882 1 2 100 5960.7 1.55622
77      212.882 1 2 100 5960.7 0.64943
78      212.882 1 2 100 5960.7 6.02583
79      212.882 1 2 100 5960.7 5.11904
80      212.882 1 2 100 5960.7 4.21225
81      212.882 1 2 100 5960.7 3.30546
82      212.882 1 2 100 5960.7 2.39867
83      212.882 1 2 100 5960.7 1.49188
84      212.882 1 2 100 5960.7 0.58509
85      212.882 1 2 100 5960.7 5.96149
86      212.882 1 2 100 5960.7 5.0547
87      212.882 1 2 100 5960.7 4.14791
88      212.882 1 2 100 5960.7 3.24112
89      212.882 1 2 100 5960.7 2.33433
90      212.882 1 2 100 5960.7 1.42754
91      212.882 1 2 100 5960.7 0.52075
92      212.882 1 2 100 5960.7 5.89715
93      212.882 1 2 100 5960.7 4.99036
94      212.882 1 2 100 5960.7 4.08357
95      212.882 1 2 100 5960.7 3.17678
96      212.882 1 2 100 5960.7 2.26999
97      212.882 1 2 100 5960.7 1.3632
98      212.882 1 2 100 5960.7 0.456411

# Format of ADC events:
# id num dwell delay freq phase
# ..  ..    ns    us   Hz   rad
[ADC]
1 1 1000000 0 0 0

# Format of delays:
# id delay (us)
[DELAYS]
1 5000000
2 1000

# Sequence Shapes
[SHAPES]

shape_id 1
num_samples 80030
1
0
0
79997
-1
0
0
27

shape_id 2
num_samples 80030
0
0
80028

