# Pulseq sequence file
# Created by MATLAB mr toolbox

# Created for Pulseq-CEST
# https://pulseq-cest.github.io/
# Created by: Kai Herz
# Created at: 03-Mar-2023 11:18:30

[VERSION]
major 1
minor 3
revision 1

[DEFINITIONS]
B0 7 
B1cwpe 0.488170405 
DCsat 0.909090909 
M0_offset -1560 
Trec 5 
Trec_M0 5 
Tsat 4 
n_pulses 73 
num_meas 122 
offsets_ppm -1560 -6 -5.9 -5.8 -5.7 -5.6 -5.5 -5.4 -5.3 -5.2 -5.1 -5 -4.9 -4.8 -4.7 -4.6 -4.5 -4.4 -4.3 -4.2 -4.1 -4 -3.9 -3.8 -3.7 -3.6 -3.5 -3.4 -3.3 -3.2 -3.1 -3 -2.9 -2.8 -2.7 -2.6 -2.5 -2.4 -2.3 -2.2 -2.1 -2 -1.9 -1.8 -1.7 -1.6 -1.5 -1.4 -1.3 -1.2 -1.1 -1 -0.9 -0.8 -0.7 -0.6 -0.5 -0.4 -0.3 -0.2 -0.1 0 0.1 0.2 0.3 0.4 0.5 0.6 0.7 0.8 0.9 1 1.1 1.2 1.3 1.4 1.5 1.6 1.7 1.8 1.9 2 2.1 2.2 2.3 2.4 2.5 2.6 2.7 2.8 2.9 3 3.1 3.2 3.3 3.4 3.5 3.6 3.7 3.8 3.9 4 4.1 4.2 4.3 4.4 4.5 4.6 4.7 4.8 4.9 5 5.1 5.2 5.3 5.4 5.5 5.6 5.7 5.8 5.9 6 
seq_id_string APTw_7T_001_0pt5uT_Bloch 
td 0.005 
tp 0.05 

# Format of blocks:
#  #  D RF  GX  GY  GZ ADC EXT
[BLOCKS]
    1  1  0   0   0   0  0  0
    2  0  1   0   0   0  0  0
    3  2  0   0   0   0  0  0
    4  0  2   0   0   0  0  0
    5  2  0   0   0   0  0  0
    6  0  3   0   0   0  0  0
    7  2  0   0   0   0  0  0
    8  0  4   0   0   0  0  0
    9  2  0   0   0   0  0  0
   10  0  5   0   0   0  0  0
   11  2  0   0   0   0  0  0
   12  0  6   0   0   0  0  0
   13  2  0   0   0   0  0  0
   14  0  7   0   0   0  0  0
   15  2  0   0   0   0  0  0
   16  0  8   0   0   0  0  0
   17  2  0   0   0   0  0  0
   18  0  9   0   0   0  0  0
   19  2  0   0   0   0  0  0
   20  0 10   0   0   0  0  0
   21  2  0   0   0   0  0  0
   22  0 11   0   0   0  0  0
   23  2  0   0   0   0  0  0
   24  0 12   0   0   0  0  0
   25  2  0   0   0   0  0  0
   26  0 13   0   0   0  0  0
   27  2  0   0   0   0  0  0
   28  0 14   0   0   0  0  0
   29  2  0   0   0   0  0  0
   30  0 15   0   0   0  0  0
   31  2  0   0   0   0  0  0
   32  0 16   0   0   0  0  0
   33  2  0   0   0   0  0  0
   34  0 17   0   0   0  0  0
   35  2  0   0   0   0  0  0
   36  0 18   0   0   0  0  0
   37  2  0   0   0   0  0  0
   38  0 19   0   0   0  0  0
   39  2  0   0   0   0  0  0
   40  0 20   0   0   0  0  0
   41  2  0   0   0   0  0  0
   42  0 21   0   0   0  0  0
   43  2  0   0   0   0  0  0
   44  0 22   0   0   0  0  0
   45  2  0   0   0   0  0  0
   46  0 23   0   0   0  0  0
   47  2  0   0   0   0  0  0
   48  0 24   0   0   0  0  0
   49  2  0   0   0   0  0  0
   50  0 25   0   0   0  0  0
   51  2  0   0   0   0  0  0
   52  0 26   0   0   0  0  0
   53  2  0   0   0   0  0  0
   54  0 27   0   0   0  0  0
   55  2  0   0   0   0  0  0
   56  0 28   0   0   0  0  0
   57  2  0   0   0   0  0  0
   58  0 29   0   0   0  0  0
   59  2  0   0   0   0  0  0
   60  0 30   0   0   0  0  0
   61  2  0   0   0   0  0  0
   62  0 31   0   0   0  0  0
   63  2  0   0   0   0  0  0
   64  0 32   0   0   0  0  0
   65  2  0   0   0   0  0  0
   66  0 33   0   0   0  0  0
   67  2  0   0   0   0  0  0
   68  0 34   0   0   0  0  0
   69  2  0   0   0   0  0  0
   70  0 35   0   0   0  0  0
   71  2  0   0   0   0  0  0
   72  0 36   0   0   0  0  0
   73  2  0   0   0   0  0  0
   74  0 37   0   0   0  0  0
   75  2  0   0   0   0  0  0
   76  0 38   0   0   0  0  0
   77  2  0   0   0   0  0  0
   78  0 39   0   0   0  0  0
   79  2  0   0   0   0  0  0
   80  0 40   0   0   0  0  0
   81  2  0   0   0   0  0  0
   82  0 41   0   0   0  0  0
   83  2  0   0   0   0  0  0
   84  0 42   0   0   0  0  0
   85  2  0   0   0   0  0  0
   86  0 43   0   0   0  0  0
   87  2  0   0   0   0  0  0
   88  0 44   0   0   0  0  0
   89  2  0   0   0   0  0  0
   90  0 45   0   0   0  0  0
   91  2  0   0   0   0  0  0
   92  0 46   0   0   0  0  0
   93  2  0   0   0   0  0  0
   94  0 47   0   0   0  0  0
   95  2  0   0   0   0  0  0
   96  0 48   0   0   0  0  0
   97  2  0   0   0   0  0  0
   98  0 49   0   0   0  0  0
   99  2  0   0   0   0  0  0
  100  0 50   0   0   0  0  0
  101  2  0   0   0   0  0  0
  102  0 51   0   0   0  0  0
  103  2  0   0   0   0  0  0
  104  0 52   0   0   0  0  0
  105  2  0   0   0   0  0  0
  106  0 53   0   0   0  0  0
  107  2  0   0   0   0  0  0
  108  0 54   0   0   0  0  0
  109  2  0   0   0   0  0  0
  110  0 55   0   0   0  0  0
  111  2  0   0   0   0  0  0
  112  0 56   0   0   0  0  0
  113  2  0   0   0   0  0  0
  114  0 57   0   0   0  0  0
  115  2  0   0   0   0  0  0
  116  0 58   0   0   0  0  0
  117  2  0   0   0   0  0  0
  118  0 59   0   0   0  0  0
  119  2  0   0   0   0  0  0
  120  0 60   0   0   0  0  0
  121  2  0   0   0   0  0  0
  122  0 61   0   0   0  0  0
  123  2  0   0   0   0  0  0
  124  0 62   0   0   0  0  0
  125  2  0   0   0   0  0  0
  126  0 63   0   0   0  0  0
  127  2  0   0   0   0  0  0
  128  0 64   0   0   0  0  0
  129  2  0   0   0   0  0  0
  130  0 65   0   0   0  0  0
  131  2  0   0   0   0  0  0
  132  0 66   0   0   0  0  0
  133  2  0   0   0   0  0  0
  134  0 67   0   0   0  0  0
  135  2  0   0   0   0  0  0
  136  0 68   0   0   0  0  0
  137  2  0   0   0   0  0  0
  138  0 69   0   0   0  0  0
  139  2  0   0   0   0  0  0
  140  0 70   0   0   0  0  0
  141  2  0   0   0   0  0  0
  142  0 71   0   0   0  0  0
  143  2  0   0   0   0  0  0
  144  0 72   0   0   0  0  0
  145  2  0   0   0   0  0  0
  146  0 73   0   0   0  0  0
  147  0  0   1   1   1  0  0
  148  0  0   0   0   0  1  0
  149  1  0   0   0   0  0  0
  150  0 74   0   0   0  0  0
  151  2  0   0   0   0  0  0
  152  0 75   0   0   0  0  0
  153  2  0   0   0   0  0  0
  154  0 76   0   0   0  0  0
  155  2  0   0   0   0  0  0
  156  0 77   0   0   0  0  0
  157  2  0   0   0   0  0  0
  158  0 78   0   0   0  0  0
  159  2  0   0   0   0  0  0
  160  0 79   0   0   0  0  0
  161  2  0   0   0   0  0  0
  162  0 80   0   0   0  0  0
  163  2  0   0   0   0  0  0
  164  0 81   0   0   0  0  0
  165  2  0   0   0   0  0  0
  166  0 82   0   0   0  0  0
  167  2  0   0   0   0  0  0
  168  0 83   0   0   0  0  0
  169  2  0   0   0   0  0  0
  170  0 84   0   0   0  0  0
  171  2  0   0   0   0  0  0
  172  0 85   0   0   0  0  0
  173  2  0   0   0   0  0  0
  174  0 86   0   0   0  0  0
  175  2  0   0   0   0  0  0
  176  0 87   0   0   0  0  0
  177  2  0   0   0   0  0  0
  178  0 88   0   0   0  0  0
  179  2  0   0   0   0  0  0
  180  0 89   0   0   0  0  0
  181  2  0   0   0   0  0  0
  182  0 90   0   0   0  0  0
  183  2  0   0   0   0  0  0
  184  0 91   0   0   0  0  0
  185  2  0   0   0   0  0  0
  186  0 92   0   0   0  0  0
  187  2  0   0   0   0  0  0
  188  0 93   0   0   0  0  0
  189  2  0   0   0   0  0  0
  190  0 94   0   0   0  0  0
  191  2  0   0   0   0  0  0
  192  0 95   0   0   0  0  0
  193  2  0   0   0   0  0  0
  194  0 96   0   0   0  0  0
  195  2  0   0   0   0  0  0
  196  0 97   0   0   0  0  0
  197  2  0   0   0   0  0  0
  198  0 98   0   0   0  0  0
  199  2  0   0   0   0  0  0
  200  0 99   0   0   0  0  0
  201  2  0   0   0   0  0  0
  202  0 100   0   0   0  0  0
  203  2  0   0   0   0  0  0
  204  0 101   0   0   0  0  0
  205  2  0   0   0   0  0  0
  206  0 102   0   0   0  0  0
  207  2  0   0   0   0  0  0
  208  0 103   0   0   0  0  0
  209  2  0   0   0   0  0  0
  210  0 104   0   0   0  0  0
  211  2  0   0   0   0  0  0
  212  0 105   0   0   0  0  0
  213  2  0   0   0   0  0  0
  214  0 106   0   0   0  0  0
  215  2  0   0   0   0  0  0
  216  0 107   0   0   0  0  0
  217  2  0   0   0   0  0  0
  218  0 108   0   0   0  0  0
  219  2  0   0   0   0  0  0
  220  0 109   0   0   0  0  0
  221  2  0   0   0   0  0  0
  222  0 110   0   0   0  0  0
  223  2  0   0   0   0  0  0
  224  0 111   0   0   0  0  0
  225  2  0   0   0   0  0  0
  226  0 112   0   0   0  0  0
  227  2  0   0   0   0  0  0
  228  0 113   0   0   0  0  0
  229  2  0   0   0   0  0  0
  230  0 114   0   0   0  0  0
  231  2  0   0   0   0  0  0
  232  0 115   0   0   0  0  0
  233  2  0   0   0   0  0  0
  234  0 116   0   0   0  0  0
  235  2  0   0   0   0  0  0
  236  0 117   0   0   0  0  0
  237  2  0   0   0   0  0  0
  238  0 118   0   0   0  0  0
  239  2  0   0   0   0  0  0
  240  0 119   0   0   0  0  0
  241  2  0   0   0   0  0  0
  242  0 120   0   0   0  0  0
  243  2  0   0   0   0  0  0
  244  0 121   0   0   0  0  0
  245  2  0   0   0   0  0  0
  246  0 122   0   0   0  0  0
  247  2  0   0   0   0  0  0
  248  0 123   0   0   0  0  0
  249  2  0   0   0   0  0  0
  250  0 124   0   0   0  0  0
  251  2  0   0   0   0  0  0
  252  0 125   0   0   0  0  0
  253  2  0   0   0   0  0  0
  254  0 126   0   0   0  0  0
  255  2  0   0   0   0  0  0
  256  0 127   0   0   0  0  0
  257  2  0   0   0   0  0  0
  258  0 128   0   0   0  0  0
  259  2  0   0   0   0  0  0
  260  0 129   0   0   0  0  0
  261  2  0   0   0   0  0  0
  262  0 130   0   0   0  0  0
  263  2  0   0   0   0  0  0
  264  0 131   0   0   0  0  0
  265  2  0   0   0   0  0  0
  266  0 132   0   0   0  0  0
  267  2  0   0   0   0  0  0
  268  0 133   0   0   0  0  0
  269  2  0   0   0   0  0  0
  270  0 134   0   0   0  0  0
  271  2  0   0   0   0  0  0
  272  0 135   0   0   0  0  0
  273  2  0   0   0   0  0  0
  274  0 136   0   0   0  0  0
  275  2  0   0   0   0  0  0
  276  0 137   0   0   0  0  0
  277  2  0   0   0   0  0  0
  278  0 138   0   0   0  0  0
  279  2  0   0   0   0  0  0
  280  0 139   0   0   0  0  0
  281  2  0   0   0   0  0  0
  282  0 140   0   0   0  0  0
  283  2  0   0   0   0  0  0
  284  0 141   0   0   0  0  0
  285  2  0   0   0   0  0  0
  286  0 142   0   0   0  0  0
  287  2  0   0   0   0  0  0
  288  0 143   0   0   0  0  0
  289  2  0   0   0   0  0  0
  290  0 144   0   0   0  0  0
  291  2  0   0   0   0  0  0
  292  0 145   0   0   0  0  0
  293  2  0   0   0   0  0  0
  294  0 146   0   0   0  0  0
  295  0  0   1   1   1  0  0
  296  0  0   0   0   0  1  0
  297  1  0   0   0   0  0  0
  298  0 147   0   0   0  0  0
[RF]
1      21.7991 1 2 100 -464934 0
2      21.7991 1 2 100 -464934 1.79448
3      21.7991 1 2 100 -464934 3.58896
4      21.7991 1 2 100 -464934 5.38343
5      21.7991 1 2 100 -464934 0.894726
6      21.7991 1 2 100 -464934 2.6892
7      21.7991 1 2 100 -464934 4.48368
8      21.7991 1 2 100 -464934 6.27816
9      21.7991 1 2 100 -464934 1.78945
10      21.7991 1 2 100 -464934 3.58393
11      21.7991 1 2 100 -464934 5.37841
12      21.7991 1 2 100 -464934 0.889699
13      21.7991 1 2 100 -464934 2.68418
14      21.7991 1 2 100 -464934 4.47865
15      21.7991 1 2 100 -464934 6.27313
16      21.7991 1 2 100 -464934 1.78442
17      21.7991 1 2 100 -464934 3.5789
18      21.7991 1 2 100 -464934 5.37338
19      21.7991 1 2 100 -464934 0.884672
20      21.7991 1 2 100 -464934 2.67915
21      21.7991 1 2 100 -464934 4.47363
22      21.7991 1 2 100 -464934 6.26811
23      21.7991 1 2 100 -464934 1.7794
24      21.7991 1 2 100 -464934 3.57388
25      21.7991 1 2 100 -464934 5.36835
26      21.7991 1 2 100 -464934 0.879646
27      21.7991 1 2 100 -464934 2.67412
28      21.7991 1 2 100 -464934 4.4686
29      21.7991 1 2 100 -464934 6.26308
30      21.7991 1 2 100 -464934 1.77437
31      21.7991 1 2 100 -464934 3.56885
32      21.7991 1 2 100 -464934 5.36333
33      21.7991 1 2 100 -464934 0.874619
34      21.7991 1 2 100 -464934 2.6691
35      21.7991 1 2 100 -464934 4.46357
36      21.7991 1 2 100 -464934 6.25805
37      21.7991 1 2 100 -464934 1.76934
38      21.7991 1 2 100 -464934 3.56382
39      21.7991 1 2 100 -464934 5.3583
40      21.7991 1 2 100 -464934 0.869593
41      21.7991 1 2 100 -464934 2.66407
42      21.7991 1 2 100 -464934 4.45855
43      21.7991 1 2 100 -464934 6.25303
44      21.7991 1 2 100 -464934 1.76432
45      21.7991 1 2 100 -464934 3.5588
46      21.7991 1 2 100 -464934 5.35327
47      21.7991 1 2 100 -464934 0.864566
48      21.7991 1 2 100 -464934 2.65904
49      21.7991 1 2 100 -464934 4.45352
50      21.7991 1 2 100 -464934 6.248
51      21.7991 1 2 100 -464934 1.75929
52      21.7991 1 2 100 -464934 3.55377
53      21.7991 1 2 100 -464934 5.34825
54      21.7991 1 2 100 -464934 0.85954
55      21.7991 1 2 100 -464934 2.65402
56      21.7991 1 2 100 -464934 4.4485
57      21.7991 1 2 100 -464934 6.24297
58      21.7991 1 2 100 -464934 1.75427
59      21.7991 1 2 100 -464934 3.54874
60      21.7991 1 2 100 -464934 5.34322
61      21.7991 1 2 100 -464934 0.854513
62      21.7991 1 2 100 -464934 2.64899
63      21.7991 1 2 100 -464934 4.44347
64      21.7991 1 2 100 -464934 6.23795
65      21.7991 1 2 100 -464934 1.74924
66      21.7991 1 2 100 -464934 3.54372
67      21.7991 1 2 100 -464934 5.33819
68      21.7991 1 2 100 -464934 0.849487
69      21.7991 1 2 100 -464934 2.64396
70      21.7991 1 2 100 -464934 4.43844
71      21.7991 1 2 100 -464934 6.23292
72      21.7991 1 2 100 -464934 1.74421
73      21.7991 1 2 100 -464934 3.53869
74      21.7991 1 2 100 -1788.21 0
75      21.7991 1 2 100 -1788.21 3.70431
76      21.7991 1 2 100 -1788.21 1.12544
77      21.7991 1 2 100 -1788.21 4.82976
78      21.7991 1 2 100 -1788.21 2.25089
79      21.7991 1 2 100 -1788.21 5.9552
80      21.7991 1 2 100 -1788.21 3.37633
81      21.7991 1 2 100 -1788.21 0.797462
82      21.7991 1 2 100 -1788.21 4.50178
83      21.7991 1 2 100 -1788.21 1.92291
84      21.7991 1 2 100 -1788.21 5.62722
85      21.7991 1 2 100 -1788.21 3.04835
86      21.7991 1 2 100 -1788.21 0.46948
87      21.7991 1 2 100 -1788.21 4.17379
88      21.7991 1 2 100 -1788.21 1.59492
89      21.7991 1 2 100 -1788.21 5.29924
90      21.7991 1 2 100 -1788.21 2.72037
91      21.7991 1 2 100 -1788.21 0.141497
92      21.7991 1 2 100 -1788.21 3.84581
93      21.7991 1 2 100 -1788.21 1.26694
94      21.7991 1 2 100 -1788.21 4.97126
95      21.7991 1 2 100 -1788.21 2.39239
96      21.7991 1 2 100 -1788.21 6.0967
97      21.7991 1 2 100 -1788.21 3.51783
98      21.7991 1 2 100 -1788.21 0.938959
99      21.7991 1 2 100 -1788.21 4.64327
100      21.7991 1 2 100 -1788.21 2.0644
101      21.7991 1 2 100 -1788.21 5.76872
102      21.7991 1 2 100 -1788.21 3.18985
103      21.7991 1 2 100 -1788.21 0.610977
104      21.7991 1 2 100 -1788.21 4.31529
105      21.7991 1 2 100 -1788.21 1.73642
106      21.7991 1 2 100 -1788.21 5.44074
107      21.7991 1 2 100 -1788.21 2.86187
108      21.7991 1 2 100 -1788.21 0.282995
109      21.7991 1 2 100 -1788.21 3.98731
110      21.7991 1 2 100 -1788.21 1.40844
111      21.7991 1 2 100 -1788.21 5.11275
112      21.7991 1 2 100 -1788.21 2.53388
113      21.7991 1 2 100 -1788.21 6.2382
114      21.7991 1 2 100 -1788.21 3.65933
115      21.7991 1 2 100 -1788.21 1.08046
116      21.7991 1 2 100 -1788.21 4.78477
117      21.7991 1 2 100 -1788.21 2.2059
118      21.7991 1 2 100 -1788.21 5.91022
119      21.7991 1 2 100 -1788.21 3.33134
120      21.7991 1 2 100 -1788.21 0.752474
121      21.7991 1 2 100 -1788.21 4.45679
122      21.7991 1 2 100 -1788.21 1.87792
123      21.7991 1 2 100 -1788.21 5.58223
124      21.7991 1 2 100 -1788.21 3.00336
125      21.7991 1 2 100 -1788.21 0.424492
126      21.7991 1 2 100 -1788.21 4.12881
127      21.7991 1 2 100 -1788.21 1.54994
128      21.7991 1 2 100 -1788.21 5.25425
129      21.7991 1 2 100 -1788.21 2.67538
130      21.7991 1 2 100 -1788.21 0.0965097
131      21.7991 1 2 100 -1788.21 3.80082
132      21.7991 1 2 100 -1788.21 1.22195
133      21.7991 1 2 100 -1788.21 4.92627
134      21.7991 1 2 100 -1788.21 2.3474
135      21.7991 1 2 100 -1788.21 6.05171
136      21.7991 1 2 100 -1788.21 3.47284
137      21.7991 1 2 100 -1788.21 0.893972
138      21.7991 1 2 100 -1788.21 4.59829
139      21.7991 1 2 100 -1788.21 2.01942
140      21.7991 1 2 100 -1788.21 5.72373
141      21.7991 1 2 100 -1788.21 3.14486
142      21.7991 1 2 100 -1788.21 0.565989
143      21.7991 1 2 100 -1788.21 4.2703
144      21.7991 1 2 100 -1788.21 1.69143
145      21.7991 1 2 100 -1788.21 5.39575
146      21.7991 1 2 100 -1788.21 2.81688
147      21.7991 1 2 100 -1758.41 0
148      21.7991 1 2 100 -1758.41 0.500983
149      21.7991 1 2 100 -1758.41 1.00197
150      21.7991 1 2 100 -1758.41 1.50295
151      21.7991 1 2 100 -1758.41 2.00393
152      21.7991 1 2 100 -1758.41 2.50492
153      21.7991 1 2 100 -1758.41 3.0059
154      21.7991 1 2 100 -1758.41 3.50688
155      21.7991 1 2 100 -1758.41 4.00787
156      21.7991 1 2 100 -1758.41 4.50885
157      21.7991 1 2 100 -1758.41 5.00983
158      21.7991 1 2 100 -1758.41 5.51082
159      21.7991 1 2 100 -1758.41 6.0118
160      21.7991 1 2 100 -1758.41 0.2296
161      21.7991 1 2 100 -1758.41 0.730584
162      21.7991 1 2 100 -1758.41 1.23157
163      21.7991 1 2 100 -1758.41 1.73255
164      21.7991 1 2 100 -1758.41 2.23353
165      21.7991 1 2 100 -1758.41 2.73452
166      21.7991 1 2 100 -1758.41 3.2355
167      21.7991 1 2 100 -1758.41 3.73648
168      21.7991 1 2 100 -1758.41 4.23747
169      21.7991 1 2 100 -1758.41 4.73845
170      21.7991 1 2 100 -1758.41 5.23944
171      21.7991 1 2 100 -1758.41 5.74042
172      21.7991 1 2 100 -1758.41 6.2414
173      21.7991 1 2 100 -1758.41 0.4592
174      21.7991 1 2 100 -1758.41 0.960184
175      21.7991 1 2 100 -1758.41 1.46117
176      21.7991 1 2 100 -1758.41 1.96215
177      21.7991 1 2 100 -1758.41 2.46313
178      21.7991 1 2 100 -1758.41 2.96412
179      21.7991 1 2 100 -1758.41 3.4651
180      21.7991 1 2 100 -1758.41 3.96608
181      21.7991 1 2 100 -1758.41 4.46707
182      21.7991 1 2 100 -1758.41 4.96805
183      21.7991 1 2 100 -1758.41 5.46904
184      21.7991 1 2 100 -1758.41 5.97002
185      21.7991 1 2 100 -1758.41 0.187817
186      21.7991 1 2 100 -1758.41 0.6888
187      21.7991 1 2 100 -1758.41 1.18978
188      21.7991 1 2 100 -1758.41 1.69077
189      21.7991 1 2 100 -1758.41 2.19175
190      21.7991 1 2 100 -1758.41 2.69273
191      21.7991 1 2 100 -1758.41 3.19372
192      21.7991 1 2 100 -1758.41 3.6947
193      21.7991 1 2 100 -1758.41 4.19568
194      21.7991 1 2 100 -1758.41 4.69667
195      21.7991 1 2 100 -1758.41 5.19765
196      21.7991 1 2 100 -1758.41 5.69864
197      21.7991 1 2 100 -1758.41 6.19962
198      21.7991 1 2 100 -1758.41 0.417417
199      21.7991 1 2 100 -1758.41 0.918401
200      21.7991 1 2 100 -1758.41 1.41938
201      21.7991 1 2 100 -1758.41 1.92037
202      21.7991 1 2 100 -1758.41 2.42135
203      21.7991 1 2 100 -1758.41 2.92233
204      21.7991 1 2 100 -1758.41 3.42332
205      21.7991 1 2 100 -1758.41 3.9243
206      21.7991 1 2 100 -1758.41 4.42529
207      21.7991 1 2 100 -1758.41 4.92627
208      21.7991 1 2 100 -1758.41 5.42725
209      21.7991 1 2 100 -1758.41 5.92824
210      21.7991 1 2 100 -1758.41 0.146034
211      21.7991 1 2 100 -1758.41 0.647017
212      21.7991 1 2 100 -1758.41 1.148
213      21.7991 1 2 100 -1758.41 1.64898
214      21.7991 1 2 100 -1758.41 2.14997
215      21.7991 1 2 100 -1758.41 2.65095
216      21.7991 1 2 100 -1758.41 3.15193
217      21.7991 1 2 100 -1758.41 3.65292
218      21.7991 1 2 100 -1758.41 4.1539
219      21.7991 1 2 100 -1758.41 4.65489
220      21.7991 1 2 100 -1728.6 0
221      21.7991 1 2 100 -1728.6 3.58084
222      21.7991 1 2 100 -1728.6 0.87849
223      21.7991 1 2 100 -1728.6 4.45933
224      21.7991 1 2 100 -1728.6 1.75698
225      21.7991 1 2 100 -1728.6 5.33782
226      21.7991 1 2 100 -1728.6 2.63547
227      21.7991 1 2 100 -1728.6 6.21631
228      21.7991 1 2 100 -1728.6 3.51396
229      21.7991 1 2 100 -1728.6 0.811612
230      21.7991 1 2 100 -1728.6 4.39245
231      21.7991 1 2 100 -1728.6 1.6901
232      21.7991 1 2 100 -1728.6 5.27094
233      21.7991 1 2 100 -1728.6 2.56859
234      21.7991 1 2 100 -1728.6 6.14943
235      21.7991 1 2 100 -1728.6 3.44708
236      21.7991 1 2 100 -1728.6 0.744733
237      21.7991 1 2 100 -1728.6 4.32557
238      21.7991 1 2 100 -1728.6 1.62322
239      21.7991 1 2 100 -1728.6 5.20406
240      21.7991 1 2 100 -1728.6 2.50171
241      21.7991 1 2 100 -1728.6 6.08255
242      21.7991 1 2 100 -1728.6 3.3802
243      21.7991 1 2 100 -1728.6 0.677855
244      21.7991 1 2 100 -1728.6 4.25869
245      21.7991 1 2 100 -1728.6 1.55635
246      21.7991 1 2 100 -1728.6 5.13718
247      21.7991 1 2 100 -1728.6 2.43483
248      21.7991 1 2 100 -1728.6 6.01567
249      21.7991 1 2 100 -1728.6 3.31332
250      21.7991 1 2 100 -1728.6 0.610977
251      21.7991 1 2 100 -1728.6 4.19181
252      21.7991 1 2 100 -1728.6 1.48947
253      21.7991 1 2 100 -1728.6 5.0703
254      21.7991 1 2 100 -1728.6 2.36796
255      21.7991 1 2 100 -1728.6 5.94879
256      21.7991 1 2 100 -1728.6 3.24645
257      21.7991 1 2 100 -1728.6 0.544099
258      21.7991 1 2 100 -1728.6 4.12494
259      21.7991 1 2 100 -1728.6 1.42259
260      21.7991 1 2 100 -1728.6 5.00343
261      21.7991 1 2 100 -1728.6 2.30108
262      21.7991 1 2 100 -1728.6 5.88192
263      21.7991 1 2 100 -1728.6 3.17957
264      21.7991 1 2 100 -1728.6 0.47722
265      21.7991 1 2 100 -1728.6 4.05806
266      21.7991 1 2 100 -1728.6 1.35571
267      21.7991 1 2 100 -1728.6 4.93655
268      21.7991 1 2 100 -1728.6 2.2342
269      21.7991 1 2 100 -1728.6 5.81504
270      21.7991 1 2 100 -1728.6 3.11269
271      21.7991 1 2 100 -1728.6 0.410342
272      21.7991 1 2 100 -1728.6 3.99118
273      21.7991 1 2 100 -1728.6 1.28883
274      21.7991 1 2 100 -1728.6 4.86967
275      21.7991 1 2 100 -1728.6 2.16732
276      21.7991 1 2 100 -1728.6 5.74816
277      21.7991 1 2 100 -1728.6 3.04581
278      21.7991 1 2 100 -1728.6 0.343464
279      21.7991 1 2 100 -1728.6 3.9243
280      21.7991 1 2 100 -1728.6 1.22195
281      21.7991 1 2 100 -1728.6 4.80279
282      21.7991 1 2 100 -1728.6 2.10044
283      21.7991 1 2 100 -1728.6 5.68128
284      21.7991 1 2 100 -1728.6 2.97893
285      21.7991 1 2 100 -1728.6 0.276586
286      21.7991 1 2 100 -1728.6 3.85742
287      21.7991 1 2 100 -1728.6 1.15508
288      21.7991 1 2 100 -1728.6 4.73591
289      21.7991 1 2 100 -1728.6 2.03357
290      21.7991 1 2 100 -1728.6 5.6144
291      21.7991 1 2 100 -1728.6 2.91206
292      21.7991 1 2 100 -1728.6 0.209708
293      21.7991 1 2 100 -1698.8 0
294      21.7991 1 2 100 -1698.8 0.377506
295      21.7991 1 2 100 -1698.8 0.755013
296      21.7991 1 2 100 -1698.8 1.13252
297      21.7991 1 2 100 -1698.8 1.51003
298      21.7991 1 2 100 -1698.8 1.88753
299      21.7991 1 2 100 -1698.8 2.26504
300      21.7991 1 2 100 -1698.8 2.64254
301      21.7991 1 2 100 -1698.8 3.02005
302      21.7991 1 2 100 -1698.8 3.39756
303      21.7991 1 2 100 -1698.8 3.77506
304      21.7991 1 2 100 -1698.8 4.15257
305      21.7991 1 2 100 -1698.8 4.53008
306      21.7991 1 2 100 -1698.8 4.90758
307      21.7991 1 2 100 -1698.8 5.28509
308      21.7991 1 2 100 -1698.8 5.6626
309      21.7991 1 2 100 -1698.8 6.0401
310      21.7991 1 2 100 -1698.8 0.134422
311      21.7991 1 2 100 -1698.8 0.511929
312      21.7991 1 2 100 -1698.8 0.889435
313      21.7991 1 2 100 -1698.8 1.26694
314      21.7991 1 2 100 -1698.8 1.64445
315      21.7991 1 2 100 -1698.8 2.02195
316      21.7991 1 2 100 -1698.8 2.39946
317      21.7991 1 2 100 -1698.8 2.77697
318      21.7991 1 2 100 -1698.8 3.15447
319      21.7991 1 2 100 -1698.8 3.53198
320      21.7991 1 2 100 -1698.8 3.90949
321      21.7991 1 2 100 -1698.8 4.28699
322      21.7991 1 2 100 -1698.8 4.6645
323      21.7991 1 2 100 -1698.8 5.042
324      21.7991 1 2 100 -1698.8 5.41951
325      21.7991 1 2 100 -1698.8 5.79702
326      21.7991 1 2 100 -1698.8 6.17452
327      21.7991 1 2 100 -1698.8 0.268845
328      21.7991 1 2 100 -1698.8 0.646351
329      21.7991 1 2 100 -1698.8 1.02386
330      21.7991 1 2 100 -1698.8 1.40136
331      21.7991 1 2 100 -1698.8 1.77887
332      21.7991 1 2 100 -1698.8 2.15638
333      21.7991 1 2 100 -1698.8 2.53388
334      21.7991 1 2 100 -1698.8 2.91139
335      21.7991 1 2 100 -1698.8 3.2889
336      21.7991 1 2 100 -1698.8 3.6664
337      21.7991 1 2 100 -1698.8 4.04391
338      21.7991 1 2 100 -1698.8 4.42141
339      21.7991 1 2 100 -1698.8 4.79892
340      21.7991 1 2 100 -1698.8 5.17643
341      21.7991 1 2 100 -1698.8 5.55393
342      21.7991 1 2 100 -1698.8 5.93144
343      21.7991 1 2 100 -1698.8 0.0257611
344      21.7991 1 2 100 -1698.8 0.403267
345      21.7991 1 2 100 -1698.8 0.780774
346      21.7991 1 2 100 -1698.8 1.15828
347      21.7991 1 2 100 -1698.8 1.53579
348      21.7991 1 2 100 -1698.8 1.91329
349      21.7991 1 2 100 -1698.8 2.2908
350      21.7991 1 2 100 -1698.8 2.66831
351      21.7991 1 2 100 -1698.8 3.04581
352      21.7991 1 2 100 -1698.8 3.42332
353      21.7991 1 2 100 -1698.8 3.80082
354      21.7991 1 2 100 -1698.8 4.17833
355      21.7991 1 2 100 -1698.8 4.55584
356      21.7991 1 2 100 -1698.8 4.93334
357      21.7991 1 2 100 -1698.8 5.31085
358      21.7991 1 2 100 -1698.8 5.68836
359      21.7991 1 2 100 -1698.8 6.06586
360      21.7991 1 2 100 -1698.8 0.160184
361      21.7991 1 2 100 -1698.8 0.53769
362      21.7991 1 2 100 -1698.8 0.915196
363      21.7991 1 2 100 -1698.8 1.2927
364      21.7991 1 2 100 -1698.8 1.67021
365      21.7991 1 2 100 -1698.8 2.04772
366      21.7991 1 2 100 -1668.99 0
367      21.7991 1 2 100 -1668.99 3.45736
368      21.7991 1 2 100 -1668.99 0.631536
369      21.7991 1 2 100 -1668.99 4.0889
370      21.7991 1 2 100 -1668.99 1.26307
371      21.7991 1 2 100 -1668.99 4.72043
372      21.7991 1 2 100 -1668.99 1.89461
373      21.7991 1 2 100 -1668.99 5.35197
374      21.7991 1 2 100 -1668.99 2.52614
375      21.7991 1 2 100 -1668.99 5.9835
376      21.7991 1 2 100 -1668.99 3.15768
377      21.7991 1 2 100 -1668.99 0.331853
378      21.7991 1 2 100 -1668.99 3.78921
379      21.7991 1 2 100 -1668.99 0.963388
380      21.7991 1 2 100 -1668.99 4.42075
381      21.7991 1 2 100 -1668.99 1.59492
382      21.7991 1 2 100 -1668.99 5.05228
383      21.7991 1 2 100 -1668.99 2.22646
384      21.7991 1 2 100 -1668.99 5.68382
385      21.7991 1 2 100 -1668.99 2.85799
386      21.7991 1 2 100 -1668.99 0.0321699
387      21.7991 1 2 100 -1668.99 3.48953
388      21.7991 1 2 100 -1668.99 0.663705
389      21.7991 1 2 100 -1668.99 4.12107
390      21.7991 1 2 100 -1668.99 1.29524
391      21.7991 1 2 100 -1668.99 4.7526
392      21.7991 1 2 100 -1668.99 1.92678
393      21.7991 1 2 100 -1668.99 5.38414
394      21.7991 1 2 100 -1668.99 2.55831
395      21.7991 1 2 100 -1668.99 6.01567
396      21.7991 1 2 100 -1668.99 3.18985
397      21.7991 1 2 100 -1668.99 0.364023
398      21.7991 1 2 100 -1668.99 3.82138
399      21.7991 1 2 100 -1668.99 0.995558
400      21.7991 1 2 100 -1668.99 4.45292
401      21.7991 1 2 100 -1668.99 1.62709
402      21.7991 1 2 100 -1668.99 5.08445
403      21.7991 1 2 100 -1668.99 2.25863
404      21.7991 1 2 100 -1668.99 5.71599
405      21.7991 1 2 100 -1668.99 2.89016
406      21.7991 1 2 100 -1668.99 0.0643398
407      21.7991 1 2 100 -1668.99 3.5217
408      21.7991 1 2 100 -1668.99 0.695875
409      21.7991 1 2 100 -1668.99 4.15324
410      21.7991 1 2 100 -1668.99 1.32741
411      21.7991 1 2 100 -1668.99 4.78477
412      21.7991 1 2 100 -1668.99 1.95895
413      21.7991 1 2 100 -1668.99 5.41631
414      21.7991 1 2 100 -1668.99 2.59048
415      21.7991 1 2 100 -1668.99 6.04784
416      21.7991 1 2 100 -1668.99 3.22202
417      21.7991 1 2 100 -1668.99 0.396193
418      21.7991 1 2 100 -1668.99 3.85355
419      21.7991 1 2 100 -1668.99 1.02773
420      21.7991 1 2 100 -1668.99 4.48509
421      21.7991 1 2 100 -1668.99 1.65926
422      21.7991 1 2 100 -1668.99 5.11662
423      21.7991 1 2 100 -1668.99 2.2908
424      21.7991 1 2 100 -1668.99 5.74816
425      21.7991 1 2 100 -1668.99 2.92233
426      21.7991 1 2 100 -1668.99 0.0965097
427      21.7991 1 2 100 -1668.99 3.55387
428      21.7991 1 2 100 -1668.99 0.728045
429      21.7991 1 2 100 -1668.99 4.18541
430      21.7991 1 2 100 -1668.99 1.35958
431      21.7991 1 2 100 -1668.99 4.81694
432      21.7991 1 2 100 -1668.99 1.99112
433      21.7991 1 2 100 -1668.99 5.44848
434      21.7991 1 2 100 -1668.99 2.62265
435      21.7991 1 2 100 -1668.99 6.08001
436      21.7991 1 2 100 -1668.99 3.25419
437      21.7991 1 2 100 -1668.99 0.428362
438      21.7991 1 2 100 -1668.99 3.88572
439      21.7991 1 2 100 -1639.19 0
440      21.7991 1 2 100 -1639.19 0.254029
441      21.7991 1 2 100 -1639.19 0.508058
442      21.7991 1 2 100 -1639.19 0.762088
443      21.7991 1 2 100 -1639.19 1.01612
444      21.7991 1 2 100 -1639.19 1.27015
445      21.7991 1 2 100 -1639.19 1.52418
446      21.7991 1 2 100 -1639.19 1.7782
447      21.7991 1 2 100 -1639.19 2.03223
448      21.7991 1 2 100 -1639.19 2.28626
449      21.7991 1 2 100 -1639.19 2.54029
450      21.7991 1 2 100 -1639.19 2.79432
451      21.7991 1 2 100 -1639.19 3.04835
452      21.7991 1 2 100 -1639.19 3.30238
453      21.7991 1 2 100 -1639.19 3.55641
454      21.7991 1 2 100 -1639.19 3.81044
455      21.7991 1 2 100 -1639.19 4.06447
456      21.7991 1 2 100 -1639.19 4.3185
457      21.7991 1 2 100 -1639.19 4.57253
458      21.7991 1 2 100 -1639.19 4.82655
459      21.7991 1 2 100 -1639.19 5.08058
460      21.7991 1 2 100 -1639.19 5.33461
461      21.7991 1 2 100 -1639.19 5.58864
462      21.7991 1 2 100 -1639.19 5.84267
463      21.7991 1 2 100 -1639.19 6.0967
464      21.7991 1 2 100 -1639.19 0.0675442
465      21.7991 1 2 100 -1639.19 0.321573
466      21.7991 1 2 100 -1639.19 0.575603
467      21.7991 1 2 100 -1639.19 0.829632
468      21.7991 1 2 100 -1639.19 1.08366
469      21.7991 1 2 100 -1639.19 1.33769
470      21.7991 1 2 100 -1639.19 1.59172
471      21.7991 1 2 100 -1639.19 1.84575
472      21.7991 1 2 100 -1639.19 2.09978
473      21.7991 1 2 100 -1639.19 2.35381
474      21.7991 1 2 100 -1639.19 2.60784
475      21.7991 1 2 100 -1639.19 2.86187
476      21.7991 1 2 100 -1639.19 3.11589
477      21.7991 1 2 100 -1639.19 3.36992
478      21.7991 1 2 100 -1639.19 3.62395
479      21.7991 1 2 100 -1639.19 3.87798
480      21.7991 1 2 100 -1639.19 4.13201
481      21.7991 1 2 100 -1639.19 4.38604
482      21.7991 1 2 100 -1639.19 4.64007
483      21.7991 1 2 100 -1639.19 4.8941
484      21.7991 1 2 100 -1639.19 5.14813
